   1.0000000e+00  -1.1252183e-01  -2.8272038e+00  -3.7738969e+00  -4.3497511e+00  -4.3760410e+00  -3.4749863e+00  -2.1814082e+00  -1.8182865e+00  -1.2505219e+00  -4.7749208e-01  -3.6380791e-01  -4.9195659e-01  -4.2185509e-01  -3.0920086e-01  -4.9593870e-01  -3.4211867e-01  -3.5533627e-01  -3.6791303e-01  -3.1650279e-01  -4.1237405e-01  -4.7167181e-01  -4.1345783e-01  -3.6461703e-01  -4.4929829e-01  -4.7141866e-01  -4.2477658e-01  -4.6251673e-01  -5.5247236e-01  -4.7537519e-01  -6.9420000e-01  -7.0186810e-01  -5.9381178e-01  -6.6068415e-01  -7.1383066e-01  -7.6980688e-01  -6.7228161e-01  -6.5367605e-01  -6.3940562e-01  -5.5930228e-01  -5.9167032e-01  -4.9322332e-01  -4.6305183e-01  -3.0164382e-01  -2.3273401e-01  -1.2505488e-01  -1.5394314e-01  -2.4357404e-02  -6.5608758e-02   3.4999258e-02   6.1935219e-02   7.1195420e-02   1.2392505e-01   1.0312371e-01   2.2522849e-01   1.2868305e-01   3.0248315e-01   2.5727621e-01   1.9635161e-01   1.7938297e-01   2.4472863e-01   3.4121687e-01   3.2820441e-01   4.0604169e-01   4.4660507e-01   4.2406823e-01   4.8151204e-01   4.7784380e-01   6.2408259e-01   5.7458456e-01   5.9801319e-01   5.6459190e-01   6.0797900e-01   6.2063457e-01   6.5625291e-01   6.8474806e-01   6.9427284e-01   6.6558377e-01   5.7579577e-01   6.3813479e-01   6.1491695e-01   5.6908343e-01   4.6857572e-01   4.4281777e-01   4.6827436e-01   4.3249295e-01   4.0795792e-01   4.1862256e-01   3.6253075e-01   4.1095901e-01   4.7166633e-01   3.7216676e-01   3.3787543e-01   2.2140511e-01   2.7399747e-01   2.9866408e-01   2.6356357e-01   3.4256352e-01   4.1950529e-01   5.8660736e-01   8.6062387e-01   1.1733446e+00   1.2581791e+00   1.4337887e+00   1.7005334e+00   1.9990431e+00   2.1253411e+00   1.9932907e+00   1.9322463e+00   1.7974367e+00   1.5222839e+00   1.2511679e+00   9.9873034e-01   4.8372242e-01   2.3132292e-02  -1.9491383e-01  -2.2091729e-01  -2.4373668e-01  -2.5469462e-01  -2.9113555e-01  -2.5649034e-01  -2.2787425e-01  -3.2242276e-01  -2.8928586e-01  -3.1816951e-01  -3.6365359e-01  -3.9345584e-01  -2.6641886e-01  -2.5682316e-01  -2.8869399e-01  -1.6233755e-01   1.6034772e-01   7.9216787e-01   9.3354122e-01   7.9695779e-01   5.7862066e-01   2.5773990e-01   2.2807718e-01   1.2343082e-01   9.2528624e-01   1.9313742e-01
   1.0000000e+00  -1.1008778e+00  -3.9968398e+00  -4.2858426e+00  -4.5065789e+00  -4.0223767e+00  -3.2343676e+00  -1.5661258e+00  -9.9225766e-01  -7.5467971e-01   4.2321173e-02   1.4895093e-01   1.8352707e-01   2.9487608e-01   1.9023267e-01   2.3557500e-01   2.5348712e-01   2.2174240e-01   5.0233259e-02   1.7804214e-01   1.3956318e-01   4.6794433e-02   4.3007139e-02   1.0654432e-01   1.2654003e-02   3.9948539e-03   4.5724179e-02  -4.5999362e-02  -7.2666959e-02  -7.1077909e-02  -1.5386649e-01  -2.2725443e-01  -2.4926970e-01  -2.5348935e-01  -3.3283516e-01  -2.6432996e-01  -3.4582525e-01  -3.1078107e-01  -3.3415978e-01  -3.0617791e-01  -1.7456252e-01  -2.0616017e-01  -2.2447967e-01  -4.8683931e-02  -1.9621159e-02   9.4805186e-02   1.1678639e-01   1.8518592e-01   2.3052577e-01   1.3802707e-01   2.4442554e-01   2.7169477e-01   2.5900331e-01   2.6920166e-01   1.2706463e-01   2.0207339e-01   2.5598343e-01   1.5311526e-01   2.1021583e-01   1.9108187e-01   1.9092702e-01   2.1051006e-01   2.0710764e-01   2.0488835e-01   2.0086474e-01   3.4691963e-01   3.4800190e-01   2.5453726e-01   3.3197465e-01   3.5669030e-01   3.4992982e-01   4.3037963e-01   4.6750163e-01   4.8606309e-01   4.0318840e-01   4.7895569e-01   3.9739177e-01   4.6412003e-01   4.5179539e-01   3.6136121e-01   3.7983090e-01   3.4278528e-01   3.9910656e-01   3.8750840e-01   2.5570346e-01   2.8403408e-01   2.8499257e-01   2.5010809e-01   1.7303626e-01   1.4942257e-01   1.4168500e-01   2.2226096e-01   1.7284705e-01   1.5077932e-01   1.7656601e-01   2.8094204e-01   4.8993901e-01   6.6088884e-01   8.9319330e-01   1.0269972e+00   1.2023937e+00   1.5574096e+00   1.8084277e+00   2.1643459e+00   2.0707467e+00   1.9036136e+00   1.7644552e+00   1.5077694e+00   1.2934277e+00   8.9456215e-01   5.7801575e-01   2.4434305e-01  -2.8644345e-01  -5.1588134e-01  -7.3270694e-01  -8.3246547e-01  -8.0331806e-01  -8.3625248e-01  -7.7786456e-01  -7.7475301e-01  -7.3340394e-01  -7.2138631e-01  -8.3209517e-01  -7.1198159e-01  -7.5186730e-01  -7.5771960e-01  -8.5311967e-01  -7.6698841e-01  -6.8816064e-01  -5.1992349e-01   3.9406169e-02   5.6032676e-01   5.3835583e-01   6.5688079e-01   7.8748958e-01   7.2404623e-01   5.5578372e-01   4.7633335e-01   7.7381971e-01   1.1196209e+00  -1.4362499e+00
   1.0000000e+00  -5.6708802e-01  -2.5934502e+00  -3.8742297e+00  -4.5840949e+00  -4.1874487e+00  -3.1514617e+00  -1.7429402e+00  -1.4906585e+00  -1.1835803e+00  -3.9422869e-01  -2.8289676e-01  -3.5692576e-01  -2.8729745e-01  -3.9948890e-01  -4.7324409e-01  -3.7904758e-01  -3.9903903e-01  -1.7859449e-01  -3.3952226e-01  -4.9844722e-01  -3.3725108e-01  -4.2547978e-01  -4.2395228e-01  -4.6317045e-01  -4.9325315e-01  -5.4974899e-01  -5.2983109e-01  -5.3093478e-01  -5.0236490e-01  -4.1736768e-01  -5.2634573e-01  -4.7100496e-01  -6.7678428e-01  -8.9861193e-01  -6.1057104e-01  -5.3016430e-01  -7.6567438e-01  -5.8193724e-01  -5.3784761e-01  -5.5638598e-01  -4.3802347e-01  -4.3624802e-01  -4.0011375e-01  -1.3498651e-01  -2.3934677e-01  -1.2024439e-01  -1.9714041e-03   2.8500048e-01   3.1564573e-01   1.0736401e-01   1.0952148e-01   1.5807843e-01   2.9189779e-01   2.6129450e-01   1.8840714e-01   1.4065136e-01   2.6336542e-01   2.8720706e-01   3.1431725e-01   1.7794238e-01   1.3829008e-01   3.2106868e-01   4.5816774e-01   2.5191615e-01   2.6135293e-01   2.7748753e-01   2.9879325e-01   4.5907535e-01   4.1914662e-01   5.2050892e-01   5.3776119e-01   6.0321071e-01   4.7563399e-01   5.2169287e-01   7.3524831e-01   7.2954106e-01   7.1852334e-01   4.9843316e-01   5.4544098e-01   6.0482668e-01   5.2129639e-01   3.9438062e-01   4.0502023e-01   5.9756305e-01   5.3113004e-01   3.7765090e-01   4.6770093e-01   4.5756933e-01   3.4111609e-01   4.0791318e-01   4.5912699e-01   4.0393661e-01   2.9819120e-01   4.6110053e-01   6.6465910e-01   5.8775722e-01   7.0132474e-01   9.1720459e-01   1.2479873e+00   1.5055679e+00   1.6401054e+00   1.8109878e+00   2.1853978e+00   2.2629849e+00   2.0529202e+00   1.8904880e+00   1.7930330e+00   1.5647844e+00   1.2346189e+00   9.0030201e-01   5.5195714e-01   2.5822163e-01  -1.2858700e-01  -9.2585287e-02  -1.6860627e-01  -4.9598880e-01  -3.9503448e-01  -3.2823831e-01  -4.4813804e-01  -2.6823009e-01  -4.5641485e-01  -3.5786694e-01  -3.1750833e-01  -4.3411223e-01  -5.4920348e-01  -3.2461549e-01  -2.6808235e-01  -2.2038421e-01  -1.1742905e-01   6.1405916e-01   1.2848254e+00   8.8607336e-01   5.3145240e-01   3.1137684e-01  -2.1918959e-02  -7.1368344e-01  -5.3219671e-01   3.2109663e-01   9.0422673e-01  -4.2179659e-01
   1.0000000e+00   4.9047253e-01  -1.9144071e+00  -3.6163638e+00  -4.3188235e+00  -4.2680158e+00  -3.8811104e+00  -2.9932802e+00  -1.6711314e+00  -1.3338845e+00  -9.6562916e-01  -1.8331859e-01  -1.0165662e-01  -2.7387437e-01  -1.2781761e-01  -1.9598345e-01  -2.1352292e-01  -1.7647269e-01  -1.5693160e-01  -1.4917231e-01  -1.8150997e-01  -1.8007406e-01  -2.4615133e-01  -2.7425986e-01  -1.4095962e-01  -2.7744877e-01  -3.8254906e-01  -3.1193709e-01  -3.6009264e-01  -4.0596818e-01  -5.7143343e-01  -5.2410561e-01  -5.3788646e-01  -6.0677754e-01  -6.6144617e-01  -6.8337478e-01  -7.4668256e-01  -6.3566206e-01  -6.2523095e-01  -5.4009375e-01  -6.7499495e-01  -6.5394896e-01  -5.6691641e-01  -5.2404493e-01  -4.1471114e-01  -3.8778691e-01  -2.8443735e-01  -7.2744620e-02  -1.6012546e-01  -9.2159535e-02   6.7164899e-02   8.1472141e-02   5.6181748e-02   2.4692229e-02   7.4395080e-02   1.5288791e-01   9.1033246e-02   1.1015952e-01   1.1727766e-01   1.1383231e-01   1.4180793e-01   2.7149224e-01   2.4974277e-01   1.9760783e-01   2.4393891e-01   3.8653837e-01   3.0001951e-01   3.0980097e-01   3.4466985e-01   3.8970986e-01   4.4285015e-01   4.3342958e-01   5.4871006e-01   5.2503659e-01   5.2197499e-01   6.2395373e-01   5.4915930e-01   6.6918880e-01   6.2992818e-01   5.3957342e-01   5.9928297e-01   4.9785318e-01   6.3809316e-01   6.1173698e-01   4.9190824e-01   5.7394864e-01   5.1624467e-01   5.7262973e-01   4.8459064e-01   3.7438176e-01   4.6177251e-01   4.1466066e-01   3.7163879e-01   4.4516957e-01   4.8416962e-01   5.5606057e-01   6.5872426e-01   8.6115788e-01   1.0163973e+00   1.1356060e+00   1.2169730e+00   1.5530785e+00   1.7721550e+00   2.0007688e+00   1.9250032e+00   1.8984260e+00   1.7209525e+00   1.5017111e+00   1.4224917e+00   1.0232255e+00   7.7634127e-01   5.0442626e-01   5.6381865e-02  -2.3316061e-01  -4.0638829e-01  -3.2752800e-01  -4.6086800e-01  -4.0253556e-01  -3.4575164e-01  -3.5420649e-01  -4.3995884e-01  -4.2532593e-01  -4.3978873e-01  -4.5183526e-01  -3.9592642e-01  -4.4876235e-01  -3.9178907e-01  -3.7630746e-01  -4.6106907e-01  -2.5352442e-01   2.1300588e-01   4.9117320e-01   3.5081636e-01   4.9911056e-01   6.0034499e-01   8.4206940e-01   9.5207354e-01   9.9013318e-01   1.0867984e+00   1.4030110e+00  -3.8356426e-01
   1.0000000e+00   8.0023202e-01  -8.7425189e-01  -2.3847613e+00  -3.9732924e+00  -4.3382241e+00  -3.8024222e+00  -2.5345096e+00  -1.7834233e+00  -1.5944504e+00  -7.5319899e-01  -2.9810663e-01  -4.2892797e-01  -4.9135079e-01  -3.6130424e-01  -3.3929554e-01  -3.2495154e-01  -2.9011333e-01  -3.6305106e-01  -5.2568383e-01  -5.9742301e-01  -5.7552317e-01  -5.6750306e-01  -5.0455484e-01  -6.1840616e-01  -6.8281354e-01  -7.4384873e-01  -8.1558784e-01  -8.2690193e-01  -7.8237433e-01  -9.2946196e-01  -9.9967167e-01  -1.0609695e+00  -1.0078773e+00  -1.0287349e+00  -1.1226293e+00  -1.0286499e+00  -1.0465146e+00  -1.0633724e+00  -1.1224228e+00  -9.8324201e-01  -8.5586525e-01  -7.9126600e-01  -5.8875425e-01  -5.1830558e-01  -3.9729838e-01  -3.5433285e-01  -2.0742492e-01  -8.8266017e-02  -1.6873361e-01  -6.7592085e-02  -3.2772281e-02   7.1899471e-02   8.1485179e-02   6.7225257e-02   1.3271969e-01   7.0240933e-02   1.0043175e-01   1.5041753e-01   1.0988654e-01   1.4886026e-01   2.0874762e-01   2.2823622e-01   2.7366422e-01   2.9952441e-01   3.2706231e-01   2.4231412e-01   3.8610522e-01   4.1908722e-01   4.3971785e-01   4.8895381e-01   5.4171511e-01   5.7386922e-01   6.3355476e-01   4.1167103e-01   4.4091729e-01   5.8870540e-01   5.3086502e-01   5.5896452e-01   6.0687423e-01   6.1472869e-01   5.3777156e-01   5.9929423e-01   6.4046303e-01   5.6839906e-01   5.4471048e-01   5.5795891e-01   5.3776149e-01   4.7229245e-01   4.6659561e-01   6.3441689e-01   4.2517487e-01   4.2077721e-01   4.4052297e-01   3.6102802e-01   3.5929943e-01   3.2136632e-01   4.2132549e-01   5.0512195e-01   6.7748866e-01   9.0869284e-01   9.8223031e-01   1.1553635e+00   1.3362539e+00   1.6275344e+00   1.7175939e+00   1.6964865e+00   1.7416856e+00   1.6740780e+00   1.5469278e+00   1.3317385e+00   1.1101682e+00   9.2221037e-01   5.2177665e-01   1.5485176e-01  -1.2386070e-01  -2.0299778e-01  -2.4795602e-01  -2.1912177e-01  -2.1469520e-01  -3.1921472e-01  -1.9859713e-01  -1.5161786e-01  -1.2959259e-01  -7.4938934e-02  -1.9680704e-01  -1.7479482e-01  -2.0883265e-01  -2.1075375e-01  -1.0048537e-01   1.9744621e-01   9.6660600e-01   1.1488838e+00   9.5843425e-01   1.0590254e+00   1.3716823e+00   1.2773918e+00   9.6030393e-01   9.7101956e-01   1.6143924e+00   1.4214563e+00
   1.0000000e+00  -1.5076736e+00  -3.5745500e+00  -4.4780109e+00  -4.4082752e+00  -3.3212415e+00  -2.1051715e+00  -1.4810482e+00  -1.3013622e+00  -4.9823960e-01  -2.8692830e-01  -3.9003094e-01  -2.6384158e-01  -3.1802419e-01  -1.8591558e-01  -2.6978996e-01  -3.2224541e-01  -3.0925306e-01  -3.9110135e-01  -3.0325940e-01  -3.1929186e-01  -4.0791759e-01  -4.2157915e-01  -4.8138035e-01  -4.4751848e-01  -5.2485040e-01  -4.6911847e-01  -5.8260667e-01  -6.7903585e-01  -6.5205179e-01  -8.4685281e-01  -7.6668159e-01  -7.3514832e-01  -7.8846458e-01  -8.5127649e-01  -8.3700984e-01  -8.4350094e-01  -8.2704168e-01  -8.7806084e-01  -7.5509458e-01  -8.0992101e-01  -6.7941539e-01  -5.8341796e-01  -4.5742032e-01  -3.7778498e-01  -3.6062856e-01  -2.3172648e-01  -2.3684160e-01  -4.7710649e-02  -5.2632422e-02  -7.4354922e-02  -9.4408878e-02  -8.2684152e-02   6.7543086e-03  -8.2925194e-02  -6.1498973e-02   2.1666852e-02  -4.0822620e-02   3.8088286e-02   4.1112760e-02  -1.0716567e-01   3.4701332e-02   8.5703804e-02   1.2185632e-01   8.8891310e-02   1.8567768e-01   2.2990726e-01   1.8320411e-01   2.8684534e-01   2.7956195e-01   4.1859150e-01   3.9460935e-01   4.2764032e-01   4.4484387e-01   4.6829876e-01   5.1542459e-01   6.3629527e-01   6.3325173e-01   6.4466005e-01   6.2754545e-01   5.3004067e-01   4.9282330e-01   4.7920823e-01   4.1335998e-01   4.7562381e-01   4.3649354e-01   4.0684174e-01   4.4330030e-01   3.1768387e-01   3.6132070e-01   3.6100050e-01   2.4142577e-01   3.1811500e-01   3.2515110e-01   4.7830471e-01   4.7607975e-01   5.3206270e-01   7.9548456e-01   9.4516940e-01   1.1049370e+00   1.2906530e+00   1.4892172e+00   1.7553005e+00   1.9609181e+00   2.0424366e+00   1.9028290e+00   1.9028747e+00   1.7580745e+00   1.4257820e+00   1.2102201e+00   9.2839739e-01   6.4126402e-01   1.7552516e-01  -1.0691014e-01  -1.3204268e-01  -1.6583570e-01  -9.8570541e-02  -2.6602195e-01  -2.3729390e-01  -1.3768778e-01  -1.0067464e-01  -1.0749888e-01  -2.1036210e-01  -1.3010391e-01  -1.0763115e-01  -1.6114587e-01  -1.0131627e-01  -9.5255496e-02  -6.9172156e-02   1.5487779e-01   6.9565622e-01   1.2149308e+00   1.0890684e+00   9.8336855e-01   1.0141238e+00   9.5262870e-01   7.4932600e-01   1.0070757e+00   1.6349896e+00   1.4933655e+00  -7.8313438e-01
   1.0000000e+00  -2.9716100e-01  -2.7666349e+00  -4.1021848e+00  -4.5896691e+00  -4.2193569e+00  -3.6504434e+00  -2.3005176e+00  -1.2939171e+00  -1.0656583e+00  -4.9052040e-01   5.0751439e-02  -7.6647389e-02  -9.4646854e-02  -1.5817964e-01  -6.8691701e-02  -1.4083211e-01  -6.9176949e-02  -1.3427557e-01  -5.9198867e-02  -1.3137923e-01  -1.8120811e-01  -2.1596475e-01  -2.1755404e-01  -2.5406003e-01  -3.3124688e-01  -3.0492329e-01  -2.7379440e-01  -3.4793484e-01  -3.8742898e-01  -4.0400320e-01  -4.2504802e-01  -5.0769997e-01  -5.8216786e-01  -5.3291699e-01  -6.3787300e-01  -6.5593804e-01  -5.4965323e-01  -6.8673176e-01  -5.8303665e-01  -6.3651154e-01  -6.2084931e-01  -4.6828900e-01  -4.2352427e-01  -3.2470491e-01  -2.6358651e-01  -1.2755785e-01   1.1174656e-02   2.4380947e-02   8.4772790e-02   5.9935601e-02   1.6447101e-01   1.6221370e-01   1.2599133e-01   1.4362743e-01   7.8258906e-02   1.7851919e-01   1.2659749e-01   1.7504434e-01   1.6945660e-01   2.9969735e-01   2.4249451e-01   2.9716945e-01   2.3840226e-01   2.4915624e-01   2.2551958e-01   2.6718444e-01   2.3662610e-01   2.5742585e-01   4.1650766e-01   4.2657605e-01   4.5903586e-01   4.1659532e-01   4.0912708e-01   3.9677707e-01   5.5726867e-01   5.3500713e-01   5.9007557e-01   5.8584409e-01   5.6813068e-01   5.5498601e-01   4.5756205e-01   4.6270393e-01   4.9946994e-01   4.5014046e-01   3.7201043e-01   4.2852068e-01   3.0460405e-01   2.4412519e-01   2.9406742e-01   2.0671765e-01   3.7245704e-01   3.9460372e-01   3.9444908e-01   4.0425396e-01   4.5989803e-01   6.7724204e-01   8.1142429e-01   8.8952757e-01   1.1303855e+00   1.2852143e+00   1.6523744e+00   1.8393372e+00   1.9485002e+00   1.9406907e+00   1.8161016e+00   1.7273154e+00   1.5512273e+00   1.2119247e+00   1.1334151e+00   7.4591889e-01   3.6093266e-01  -1.2851839e-01  -3.9421797e-01  -4.3660141e-01  -5.0647651e-01  -4.5514710e-01  -4.5786634e-01  -5.4529921e-01  -5.0609683e-01  -3.7652870e-01  -4.5780449e-01  -4.9545976e-01  -4.5869326e-01  -3.3281149e-01  -4.1033407e-01  -4.0651848e-01  -3.3723175e-01  -3.8647852e-01  -8.2580102e-02   2.2031610e-01   5.9497827e-01   5.8177878e-01   6.8440603e-01   9.1165083e-01   9.7948323e-01   1.0534584e+00   9.7478703e-01   1.1104073e+00   1.2881654e+00  -8.2338562e-01
   1.0000000e+00   4.4676853e-01  -1.5073974e+00  -3.1874679e+00  -4.5074621e+00  -4.6042007e+00  -3.6361150e+00  -2.3116038e+00  -1.5977275e+00  -1.3624498e+00  -6.6921633e-01  -1.7339277e-01  -2.0511622e-01  -2.3078667e-01  -1.7712137e-01  -2.3850955e-01  -2.0507877e-01  -2.3054363e-01  -2.0915931e-01  -2.9293956e-01  -2.5506852e-01  -2.5398990e-01  -3.5197992e-01  -4.2773929e-01  -4.6594770e-01  -4.6028596e-01  -4.7506210e-01  -4.4974621e-01  -5.6228003e-01  -5.3278100e-01  -6.3579716e-01  -6.3658771e-01  -7.4954800e-01  -8.0678463e-01  -6.9629187e-01  -8.5528234e-01  -8.9625530e-01  -9.0567196e-01  -9.0845622e-01  -8.3008356e-01  -8.3883747e-01  -6.9212508e-01  -6.4576927e-01  -4.8887225e-01  -4.0645909e-01  -3.5637924e-01  -2.2657834e-01  -2.0574481e-01  -7.1802463e-02  -6.6372326e-02   7.5019777e-03   3.0631739e-02   2.0969858e-02   3.3968155e-02   1.6488977e-01   8.3023926e-02   4.5058956e-02  -4.7666788e-03   1.2381566e-01   1.0804433e-01   7.3935543e-02   1.1256906e-01   5.5672868e-02   1.2375141e-01   2.2032513e-01   2.3411098e-01   3.2279232e-01   2.1513818e-01   3.3896743e-01   3.3478514e-01   3.2808378e-01   5.1228301e-01   4.9876823e-01   6.0277392e-01   6.5327531e-01   6.8093211e-01   7.2841436e-01   6.8048301e-01   6.4050410e-01   6.2050170e-01   6.5800821e-01   7.1363176e-01   6.2167160e-01   4.8816176e-01   4.5528345e-01   4.2458401e-01   5.0446979e-01   4.2813301e-01   4.5083786e-01   4.4836001e-01   3.8991267e-01   3.9158529e-01   3.4956959e-01   4.1467343e-01   4.7231448e-01   5.6453121e-01   7.3509325e-01   7.9975056e-01   1.1259942e+00   1.1641296e+00   1.2818475e+00   1.5527349e+00   1.6916357e+00   1.8828098e+00   1.7603130e+00   1.8258701e+00   1.6193333e+00   1.3949016e+00   1.1327886e+00   9.2835160e-01   5.9884412e-01   2.2924343e-01  -1.4470770e-01  -2.7006863e-01  -3.2319297e-01  -3.4959834e-01  -2.9816321e-01  -2.5184329e-01  -2.9194076e-01  -4.1334591e-01  -3.0745492e-01  -3.3082525e-01  -4.3238918e-01  -2.8993487e-01  -3.2493274e-01  -3.0928759e-01  -2.5256740e-01  -2.8258614e-01  -1.6934497e-01   2.5872903e-01   8.9662717e-01   1.0882033e+00   1.0013058e+00   1.2920592e+00   1.3786665e+00   1.0147645e+00   8.2079301e-01   1.0343880e+00   1.2584334e+00   9.6121472e-01  -9.9947589e-01
   1.0000000e+00   8.7630577e-02  -1.7534903e+00  -3.3044731e+00  -4.7046566e+00  -4.6864151e+00  -3.6118167e+00  -2.2672676e+00  -1.5708930e+00  -1.4177903e+00  -5.0078809e-01  -2.2517739e-01  -3.0883362e-01  -2.1473324e-01  -2.1450921e-01  -2.2312107e-01  -2.6233599e-01  -2.1181590e-01  -2.9909881e-01  -2.5995633e-01  -3.1610955e-01  -2.5866848e-01  -2.8714668e-01  -3.6685535e-01  -3.0598032e-01  -4.1670806e-01  -4.0230307e-01  -3.8155410e-01  -5.1989677e-01  -5.2095179e-01  -5.9691915e-01  -6.5070030e-01  -6.7963616e-01  -7.5152681e-01  -7.2522391e-01  -8.3070065e-01  -8.0731727e-01  -8.4838836e-01  -7.4455386e-01  -6.9997298e-01  -7.5435259e-01  -6.2191821e-01  -5.3394237e-01  -3.9659590e-01  -2.2089032e-01  -1.7931625e-01  -9.4803401e-03  -2.4018025e-02   4.1459691e-02   9.4492517e-02   8.3212059e-02   9.9031316e-02   4.5914253e-02   1.0951946e-01   1.6816200e-01   2.6346944e-01   1.3610056e-01   1.5883825e-01   8.9803130e-02   1.4660419e-01   1.9676887e-01   2.6898346e-01   2.3726297e-01   1.8635578e-01   2.4141723e-01   2.7842589e-01   3.8315578e-01   3.8957693e-01   3.9354878e-01   5.7738569e-01   5.8774864e-01   5.8188293e-01   5.4491690e-01   6.5788513e-01   6.0177743e-01   6.4273411e-01   6.9906231e-01   6.8011030e-01   6.9863975e-01   7.1617522e-01   6.6862611e-01   6.7182660e-01   5.7504464e-01   5.2921250e-01   5.4333826e-01   6.0328119e-01   5.5471386e-01   5.6362046e-01   4.8903431e-01   4.4695034e-01   4.5643246e-01   3.9325248e-01   4.4143912e-01   4.4738863e-01   2.7405506e-01   3.6460866e-01   4.0121863e-01   4.4788969e-01   5.4780929e-01   6.4209010e-01   7.8832807e-01   7.4980141e-01   8.2085218e-01   9.6416033e-01   1.0618841e+00   1.3408602e+00   1.1378081e+00   8.6401264e-01   6.8398010e-01   6.2842387e-01   5.0113433e-01   4.9129218e-01   4.6193736e-01   3.2981245e-01   1.2041510e-01  -1.4196808e-01  -1.9517724e-01  -1.0265211e-01  -7.6308425e-02  -1.1651106e-01  -1.9168563e-01  -2.3429165e-01  -1.6112658e-01  -1.4536342e-01  -2.1218169e-01  -1.3568405e-01  -1.3344050e-01  -1.7007668e-01  -3.5913592e-02   3.3224263e-01   1.0632505e+00   1.5757540e+00   1.7090456e+00   2.1429259e+00   2.3935280e+00   1.9255500e+00   1.0276237e+00   5.7345293e-01   1.9297149e-01  -6.4868286e-01  -2.4410678e+00
   1.0000000e+00  -8.3228111e-01  -1.7003675e+00  -2.2573013e+00  -2.8536712e+00  -2.8533008e+00  -2.7014866e+00  -2.2857261e+00  -1.5555120e+00  -1.2666223e+00  -1.0859570e+00  -6.9464057e-01  -5.8851692e-01  -6.6246942e-01  -7.6800441e-01  -7.7255050e-01  -6.2105407e-01  -6.1418665e-01  -6.3012434e-01  -6.6957728e-01  -6.8415362e-01  -6.9294243e-01  -6.1130156e-01  -6.4700697e-01  -6.2136212e-01  -6.4107130e-01  -6.5907019e-01  -6.2097711e-01  -6.7492061e-01  -6.6416383e-01  -7.3694270e-01  -7.6923705e-01  -6.9965708e-01  -8.0030165e-01  -7.2742332e-01  -7.5043487e-01  -7.8906542e-01  -7.3295704e-01  -7.6548658e-01  -6.9708867e-01  -7.6728083e-01  -7.1641729e-01  -6.4584327e-01  -5.7317813e-01  -5.6025580e-01  -6.1643357e-01  -6.1431553e-01  -5.5193907e-01  -4.0993954e-01  -4.6597041e-01  -4.2836411e-01  -4.2283947e-01  -3.7138890e-01  -3.9472419e-01  -4.2201833e-01  -3.5485451e-01  -4.0841286e-01  -4.2534175e-01  -3.8702144e-01  -4.0999646e-01  -4.2726131e-01  -3.8690279e-01  -3.7227239e-01  -3.8801449e-01  -3.2093223e-01  -3.6169826e-01  -3.0421592e-01  -2.2082560e-01  -2.6522743e-01  -2.5316306e-01  -1.7678608e-01  -1.8033685e-01  -1.3543422e-01  -1.0218701e-01  -6.9772168e-02  -1.2025854e-02   1.9392818e-02   2.3502179e-03   2.5684537e-02   1.0619972e-01   6.0628283e-02   1.4100528e-01   9.8627186e-02   1.0026031e-01   1.2496920e-01   1.3151283e-01   1.5842003e-01   1.0196096e-01   1.6902623e-01   1.9830596e-01   1.6513906e-01   1.9785921e-01   1.1946397e-01   2.4410863e-01   3.6000277e-01   4.6532602e-01   5.0420990e-01   5.5611785e-01   6.8718873e-01   8.2299787e-01   9.2351214e-01   1.0769364e+00   1.1586477e+00   1.1558893e+00   1.1376925e+00   1.0217586e+00   9.1858098e-01   8.3113319e-01   6.8050602e-01   5.4029633e-01   4.6392539e-01   1.3576907e-01   4.0805901e-02   5.5551077e-02   1.8917608e-02   1.4897340e-01   3.9533782e-01   7.7973296e-01   9.4139313e-01   1.0007652e+00   9.8593040e-01   9.7372193e-01   1.0344785e+00   1.0622647e+00   1.0609783e+00   1.1161974e+00   1.2243507e+00   1.4212402e+00   1.6446545e+00   2.0071813e+00   2.1185986e+00   2.0283038e+00   2.1105038e+00   2.2036678e+00   2.2275444e+00   2.1717334e+00   2.0459377e+00   2.1263716e+00   2.1268518e+00   1.6792986e+00   9.6581366e-01
   1.0000000e+00   8.4430128e-02  -3.1903071e+00  -4.6861750e+00  -4.5594833e+00  -4.0879723e+00  -2.6188591e+00  -1.7605895e+00  -1.5929641e+00  -5.6911653e-01  -1.3039950e-01  -1.7370458e-01  -1.5454113e-01  -1.1002092e-01  -9.9078691e-02  -1.2750212e-01  -1.5563878e-01  -1.6613496e-01  -1.8039026e-01  -1.1864333e-01  -1.4853266e-01  -2.2084811e-01  -2.1329672e-01  -3.0026262e-01  -3.4072202e-01  -4.1811977e-01  -5.1138155e-01  -5.1300763e-01  -6.0834007e-01  -6.9274586e-01  -7.3708018e-01  -7.6917735e-01  -7.1278713e-01  -8.3424775e-01  -8.1326841e-01  -8.9117252e-01  -8.8461246e-01  -7.9474086e-01  -8.0278306e-01  -8.0424269e-01  -7.6484136e-01  -7.2056788e-01  -6.1615484e-01  -5.2870277e-01  -3.5800670e-01  -2.9460302e-01  -2.4713024e-01  -1.8558663e-01  -1.6121218e-01  -1.5045335e-01  -5.7265099e-02  -7.1218149e-03   1.8179982e-02   4.5173466e-02   8.6900977e-02   2.5782646e-02   8.2907602e-02   6.7584025e-02   1.3455151e-01   2.5097694e-01   2.2403714e-01   2.1174150e-01   1.4528316e-01   2.4036970e-01   2.7144822e-01   1.9709405e-01   3.5852835e-01   4.5131703e-01   4.0618248e-01   5.4828199e-01   5.1869113e-01   5.5756468e-01   6.1620058e-01   5.5313175e-01   5.9117333e-01   6.1090031e-01   5.3363841e-01   5.1353788e-01   6.1563240e-01   4.7098399e-01   4.5231736e-01   4.2164380e-01   4.8208225e-01   3.7153944e-01   3.8604997e-01   3.9589425e-01   3.8188301e-01   3.2636596e-01   3.4629094e-01   2.2860941e-01   2.7339520e-01   3.2381313e-01   2.3135448e-01   2.4341118e-01   3.0025892e-01   2.3570462e-01   2.1689355e-01   2.6646861e-01   2.8661239e-01   5.5197245e-01   7.4366470e-01   1.1209808e+00   1.2565289e+00   1.3506048e+00   1.5030465e+00   1.9050613e+00   1.9776960e+00   1.7310649e+00   1.6800087e+00   1.4572779e+00   1.3045030e+00   1.1445094e+00   7.5396576e-01   3.3953840e-01  -1.1637500e-01  -2.9537289e-01  -2.4483602e-01  -3.2682085e-01  -2.1511800e-01  -3.4200912e-01  -4.1663854e-01  -2.7606039e-01  -2.6073745e-01  -2.3416539e-01  -2.1292010e-01  -1.9000441e-01  -1.9854207e-01  -1.4229553e-01  -8.2819151e-02  -7.3201588e-02   5.9626656e-03   4.6716454e-01   1.1522791e+00   1.2718080e+00   1.1907960e+00   1.1807378e+00   1.0581950e+00   9.8257725e-01   8.7377195e-01   1.6267069e+00  -2.0783419e-02
   1.0000000e+00  -7.8191379e-03  -2.3367567e+00  -3.5276430e+00  -4.3262444e+00  -3.8904138e+00  -2.9460007e+00  -1.9224567e+00  -1.6705388e+00  -1.3031111e+00  -2.9907967e-01  -2.7366841e-01  -2.7928163e-01  -2.8551210e-01  -2.8919989e-01  -2.9263189e-01  -3.9760935e-01  -4.0128027e-01  -4.4610812e-01  -4.6326401e-01  -3.9617077e-01  -3.1596354e-01  -3.7036618e-01  -5.2714926e-01  -5.8197651e-01  -6.2449313e-01  -5.5278420e-01  -6.2293266e-01  -6.8911027e-01  -6.5794047e-01  -7.6140667e-01  -7.3041856e-01  -7.6516833e-01  -8.5597892e-01  -1.0090543e+00  -1.0606607e+00  -1.0671751e+00  -1.0902520e+00  -1.0909388e+00  -1.0669016e+00  -1.0828626e+00  -1.0821855e+00  -9.8674608e-01  -9.3689360e-01  -8.1903706e-01  -6.8585030e-01  -6.2458240e-01  -4.9029342e-01  -4.2600697e-01  -3.6034912e-01  -2.0807361e-01  -1.2508695e-01  -1.8817969e-01  -1.1813875e-01  -1.1355795e-01  -1.4616953e-01  -9.1184183e-02  -4.6443318e-02  -4.1551965e-03   6.8030610e-03   9.9330391e-03  -1.9665082e-02  -4.0473591e-02   5.2610775e-02   2.6297585e-02   2.3167188e-02   1.1511491e-01   1.5657944e-01   1.9955413e-01   1.7143918e-01   2.2585370e-01   3.1608261e-01   3.7923683e-01   3.7006024e-01   4.1175447e-01   4.6197749e-01   5.4320326e-01   5.4880024e-01   4.8250766e-01   5.7314352e-01   5.2836526e-01   5.1934147e-01   4.7618857e-01   4.6593179e-01   4.3017034e-01   4.5440471e-01   4.3137952e-01   4.1159179e-01   4.5023345e-01   4.2072954e-01   3.5379033e-01   4.2603056e-01   3.8320930e-01   3.6046275e-01   3.9338516e-01   3.8357026e-01   3.5661533e-01   5.1977247e-01   5.5465908e-01   6.1016699e-01   7.3042397e-01   9.5537319e-01   1.1374762e+00   1.2442845e+00   1.4987644e+00   1.6533845e+00   1.7163956e+00   1.6937524e+00   1.6150577e+00   1.6204593e+00   1.4205859e+00   1.1758989e+00   9.1863064e-01   5.7623684e-01   2.6696355e-01   7.7792235e-02   5.0024788e-02   1.2544997e-01   2.1135015e-01   1.5532258e-01   1.5655616e-01   1.0462987e-01   1.6696775e-01   1.9685621e-01   2.4186926e-01   2.1510645e-01   2.0137985e-01   2.5710179e-01   2.2749674e-01   3.9845371e-01   8.1057843e-01   1.5422583e+00   1.5267386e+00   1.4260580e+00   1.5891262e+00   1.5648449e+00   1.3347122e+00   1.1652085e+00   9.5443408e-01   1.4702110e+00   3.9306323e-01
   1.0000000e+00  -1.0743015e+00  -3.2593996e+00  -4.1259793e+00  -4.3424462e+00  -3.9225581e+00  -3.1901557e+00  -1.9460608e+00  -1.5547740e+00  -1.2963524e+00  -5.6500449e-01  -1.0577056e-01  -1.1813282e-01  -1.6329874e-01  -1.6615776e-01  -1.4780036e-01  -1.3748339e-01  -1.0318550e-01  -1.3264396e-01  -9.7150159e-02  -8.8237275e-02  -2.1294090e-01  -2.3469869e-01  -2.8181156e-01  -2.8953936e-01  -3.2886033e-01  -3.7907232e-01  -4.5602242e-01  -3.9615841e-01  -4.4200544e-01  -4.5891429e-01  -5.2002548e-01  -5.8236633e-01  -6.3331585e-01  -7.0967404e-01  -6.4087024e-01  -6.4152322e-01  -6.3568098e-01  -5.2959221e-01  -5.2781548e-01  -4.5150520e-01  -3.9632120e-01  -4.0267291e-01  -2.9558793e-01  -2.2151419e-01  -1.3692163e-01  -3.8955079e-02  -1.6756396e-02   1.2403993e-01   2.1481016e-01   2.1177552e-01   2.8344253e-01   1.8402967e-01   1.4159571e-01   1.5523323e-01   2.2338072e-01   1.4542889e-01   1.4192719e-01   1.5251023e-01   1.7836236e-01   1.3376138e-01   2.1736044e-01   2.1937523e-01   1.7338218e-01   2.2879701e-01   2.3978375e-01   2.9735952e-01   3.0262429e-01   3.8894263e-01   4.2777253e-01   4.4051275e-01   4.7315826e-01   5.3077965e-01   5.2585974e-01   5.5169954e-01   6.1346969e-01   6.5024299e-01   5.4995000e-01   5.8189430e-01   5.5531340e-01   4.7195946e-01   4.8755566e-01   4.9623550e-01   4.6439761e-01   4.0633694e-01   3.7818354e-01   3.7418393e-01   3.9217362e-01   3.5056850e-01   4.0287261e-01   3.8801493e-01   2.5528492e-01   2.8871606e-01   3.5533813e-01   4.0729064e-01   5.8248244e-01   5.5011461e-01   7.3791410e-01   9.3778764e-01   1.1537180e+00   1.4648005e+00   1.8358526e+00   2.1568953e+00   2.1678100e+00   2.0665876e+00   1.8171367e+00   1.6657929e+00   1.4019038e+00   1.1256864e+00   6.4539177e-01   2.7767517e-01  -1.5344000e-01  -3.8774715e-01  -4.4750766e-01  -4.7512055e-01  -4.6610713e-01  -4.6673156e-01  -5.0941984e-01  -5.5514884e-01  -4.7078248e-01  -4.7006473e-01  -4.7874456e-01  -4.4130873e-01  -4.2388426e-01  -4.6550235e-01  -4.2916721e-01  -3.1364066e-01  -3.5887253e-01  -2.2405015e-01   1.6157304e-01   7.7736237e-01   8.5651474e-01   9.3106427e-01   1.1292417e+00   1.0235497e+00   7.6771337e-01   6.1342569e-01   6.9624715e-01   1.1766660e+00   1.1316334e+00  -1.0949732e+00
   1.0000000e+00   4.0581274e+00   2.0878442e+00   4.2311530e-01  -2.0588691e+00  -3.2376915e+00  -4.5267529e+00  -3.8361573e+00  -1.9750063e+00  -7.8335306e-01  -3.8103834e-01   8.9943175e-01   1.5067459e+00   1.1748641e+00   1.2346958e+00   1.1736633e+00   1.2208137e+00   1.2611729e+00   1.2908708e+00   1.2858577e+00   1.1378515e+00   9.0326781e-01   9.6899861e-01   8.9832916e-01   7.2589558e-01   7.5098858e-01   6.5091167e-01   5.0533326e-01   3.9965642e-01   2.2806365e-01   3.7147076e-01   5.2598770e-02   1.6930755e-02  -2.9166129e-01  -1.7993871e-01  -2.8575471e-01  -5.2406259e-01  -5.4779474e-01  -5.6231929e-01  -5.9153508e-01  -7.9944254e-01  -7.1204342e-01  -6.4138635e-01  -6.5578025e-01  -5.1877396e-01  -4.0917534e-01  -4.1203873e-01  -2.1307428e-01   2.9181096e-02   1.1180697e-01   5.6617946e-02   2.6037196e-01   1.6303214e-01   9.2609966e-02   7.9472141e-03   6.8280563e-02   2.1874927e-01   3.2833516e-01   3.6364284e-01   2.1674527e-01   1.8037912e-01   2.0337981e-01   4.0300362e-02   2.7022074e-01   1.5252781e-01   2.0829610e-01   3.2871803e-01   1.0004339e-01   3.4049918e-01   2.7333933e-01   3.9224732e-01   3.7920467e-01   4.7154190e-01   4.2477109e-01   4.2450130e-01   5.9528928e-01   4.7449468e-01   6.2632946e-01   5.0017107e-01   4.9472156e-01   4.2461325e-01   5.0887024e-01   4.4181460e-01   3.6925967e-01   2.8237625e-01   2.7723809e-01   2.6045847e-01  -4.7767913e-04  -2.7998341e-02  -2.1547150e-01   4.9414319e-02   4.6144104e-03  -2.0377006e-01  -2.4665436e-01  -3.4642498e-01  -8.8971099e-02  -4.2668836e-01  -3.7817546e-01  -2.2328332e-01  -3.4046310e-01  -4.6756212e-01  -2.6919317e-01  -2.6093301e-01  -3.2823634e-01  -2.6777948e-01  -4.1086656e-01  -1.0632832e-02   4.6953500e-01   1.0310432e+00   9.4631964e-01   7.9969563e-01   4.7050645e-01   3.7471716e-01   1.2258893e-01   2.3883239e-01   3.4120839e-01  -1.1777447e-01  -5.5829682e-01  -1.1025884e+00  -1.2562895e+00  -1.1822768e+00  -1.2107513e+00  -9.7311758e-01  -1.2009763e+00  -1.2717045e+00  -1.1749427e+00  -1.0787344e+00  -1.0606461e+00  -1.2792740e+00  -1.1854130e+00  -9.9547326e-01  -8.9016550e-01  -1.0400893e-01   1.5046435e+00   1.3920341e+00   1.3311414e+00   1.1975315e+00   1.0928611e+00  -1.2932652e-01  -1.0382589e+00  -1.4898633e+00
   1.0000000e+00  -7.6160326e-01  -2.9212433e+00  -3.8943153e+00  -4.3849610e+00  -4.0682246e+00  -3.5111043e+00  -2.5328155e+00  -1.6873964e+00  -1.3980988e+00  -8.9928768e-01  -5.3766749e-01  -4.8197630e-01  -5.3338010e-01  -5.2246989e-01  -4.9307977e-01  -5.3051716e-01  -4.4779559e-01  -4.6459623e-01  -3.8506357e-01  -4.8942808e-01  -4.2492148e-01  -4.4130039e-01  -3.7539759e-01  -4.5228681e-01  -4.0672606e-01  -4.1976808e-01  -4.7985054e-01  -4.5911045e-01  -4.5683208e-01  -4.8010485e-01  -5.8779941e-01  -5.7426024e-01  -5.5424721e-01  -6.2051811e-01  -5.9481760e-01  -6.1261337e-01  -6.4766504e-01  -5.6023832e-01  -6.3740623e-01  -6.3460819e-01  -5.1851928e-01  -5.0397191e-01  -3.6189107e-01  -2.9904866e-01  -2.6717888e-01  -1.9419251e-01  -1.9240208e-01  -7.1317489e-02  -5.3523598e-02  -2.9566763e-02   4.7020617e-02   4.0209855e-03   5.5046918e-02   4.3360910e-02   2.3562547e-02   1.9542722e-02   1.3656264e-02   8.4049077e-02   9.0896122e-02   1.2223264e-01   1.6284990e-01   8.2302086e-02   2.3661865e-01   1.8365295e-01   1.8977741e-01   2.0949712e-01   2.0935465e-01   2.0315573e-01   3.3178146e-01   3.2240940e-01   3.8638533e-01   4.0866058e-01   3.8929727e-01   5.3045532e-01   5.4518428e-01   5.8389835e-01   6.3601033e-01   6.9719605e-01   5.8756363e-01   6.4901772e-01   6.3839173e-01   5.9604228e-01   5.5777869e-01   5.4128097e-01   5.5901731e-01   5.3776883e-01   5.2052714e-01   4.4365812e-01   5.4493639e-01   5.2231248e-01   5.0768930e-01   4.9369375e-01   4.8639967e-01   4.7171256e-01   5.0220469e-01   6.8602434e-01   8.1336346e-01   9.2577458e-01   1.0300284e+00   1.1044336e+00   1.3856685e+00   1.5812144e+00   1.7173166e+00   1.7044098e+00   1.6705234e+00   1.5924119e+00   1.4331079e+00   1.2461458e+00   1.0478742e+00   8.0275863e-01   5.0358214e-01   3.1896599e-01  -1.2007384e-02  -4.2840598e-02  -1.0770912e-01  -1.6100313e-01  -2.0358106e-01  -1.4437556e-01  -1.4597041e-01  -2.0486453e-01  -1.6471420e-01  -1.7971524e-01  -1.7907795e-01  -1.5822417e-01  -1.2270101e-01  -1.0996763e-01  -8.4732804e-02  -4.7361880e-02   2.1757117e-01   5.8297649e-01   1.0009154e+00   1.0731004e+00   1.2425013e+00   1.4495869e+00   1.3797497e+00   1.0681166e+00   7.4606108e-01   8.4904613e-01   1.1621124e+00  -3.8125681e-01
   1.0000000e+00  -1.8649962e-01  -2.6824878e+00  -4.0168823e+00  -4.2181222e+00  -3.8416655e+00  -2.9940593e+00  -1.9739404e+00  -1.6397073e+00  -1.2912067e+00  -5.6676936e-01  -3.2797059e-01  -3.5881305e-01  -3.6747683e-01  -2.6171947e-01  -4.3112527e-01  -4.4179395e-01  -3.5334990e-01  -3.7600121e-01  -3.6462327e-01  -3.8663497e-01  -4.1732614e-01  -4.6416289e-01  -4.6274808e-01  -5.4337028e-01  -5.4589006e-01  -5.4595426e-01  -5.9512355e-01  -6.9263085e-01  -6.9923670e-01  -7.1662131e-01  -6.6112850e-01  -7.6789989e-01  -8.1352439e-01  -8.7341480e-01  -9.5605220e-01  -8.7202803e-01  -8.7619337e-01  -8.1070489e-01  -7.9011728e-01  -7.1594341e-01  -5.9079026e-01  -5.3481418e-01  -4.7671320e-01  -3.7184064e-01  -2.4637294e-01  -1.3094889e-01  -1.2053496e-01   1.4479258e-02   1.1071589e-02   2.2752286e-03   1.1652929e-01   8.4693509e-02   1.2832510e-01   1.6015750e-01   1.0118565e-01   1.4420806e-01   1.3636224e-01   1.6388596e-01   2.0674542e-01   2.9980544e-01   3.0896572e-01   3.0677655e-01   3.4639645e-01   3.1397849e-01   3.8596690e-01   5.1318170e-01   4.5898087e-01   5.6655463e-01   5.8107131e-01   5.8295677e-01   6.9183783e-01   6.7918912e-01   6.7279958e-01   6.7036759e-01   6.8276210e-01   6.4401916e-01   6.0561895e-01   7.0029255e-01   6.4454818e-01   5.1677329e-01   5.9514554e-01   6.8509769e-01   5.7346560e-01   5.2972662e-01   5.2142569e-01   5.3106979e-01   3.8848935e-01   4.8497031e-01   3.8670994e-01   3.7442045e-01   4.3744564e-01   3.4410178e-01   3.7218879e-01   3.7646740e-01   3.1480166e-01   3.6271340e-01   5.9456603e-01   7.5787651e-01   9.1904515e-01   1.1127328e+00   1.2786460e+00   1.3747004e+00   1.7065354e+00   1.8956841e+00   1.8727833e+00   1.7721659e+00   1.6967053e+00   1.3856256e+00   1.2328678e+00   9.5053720e-01   5.7927666e-01   2.9595710e-01  -2.0178549e-01  -3.0348223e-01  -3.8762337e-01  -3.6700021e-01  -3.7480505e-01  -4.7913017e-01  -3.8322503e-01  -3.9308814e-01  -4.6479868e-01  -4.1347572e-01  -4.0945921e-01  -4.6814299e-01  -4.1410923e-01  -3.7715362e-01  -3.3561887e-01  -3.6524952e-01  -1.3930581e-01   1.4568220e-01   8.0874553e-01   7.8128882e-01   7.2518731e-01   1.0682644e+00   1.1297018e+00   9.4098100e-01   1.0080436e+00   1.5642571e+00   2.1514756e+00   1.8005396e-01
   1.0000000e+00   8.0393944e-01  -1.1069099e+00  -2.8541073e+00  -3.8986873e+00  -4.1531318e+00  -3.9971558e+00  -3.2908875e+00  -2.1893642e+00  -1.5822713e+00  -1.4197418e+00  -7.7623822e-01  -3.6466834e-01  -3.5131917e-01  -2.8209846e-01  -3.2809502e-01  -2.4445476e-01  -2.7204293e-01  -2.5295563e-01  -2.1698265e-01  -2.9821598e-01  -3.0900757e-01  -3.1775712e-01  -3.7635874e-01  -4.0969467e-01  -3.7896253e-01  -4.3216817e-01  -4.7256245e-01  -4.5051965e-01  -4.7193918e-01  -5.0832158e-01  -6.3612133e-01  -5.7613836e-01  -6.4785973e-01  -6.5471828e-01  -6.6189443e-01  -6.4606584e-01  -5.7512668e-01  -5.8149884e-01  -5.6127511e-01  -5.6830862e-01  -4.5494409e-01  -4.3891843e-01  -3.2415361e-01  -2.1697821e-01  -2.2141165e-01  -1.4777626e-01  -6.3389856e-02   2.2359195e-02  -5.3922652e-02   3.6558661e-02   6.2544658e-02   1.2899710e-02   1.7091905e-01   2.3649326e-02  -9.0073401e-04   4.6446378e-02   6.8936828e-02   2.2108195e-02   9.4244559e-02   8.5704019e-02   1.6306880e-01   1.6418196e-01   1.3652682e-01   1.8954010e-01   2.4475174e-01   3.4320768e-01   2.5581810e-01   3.1011176e-01   3.9334970e-01   3.4045738e-01   4.7296407e-01   5.5601857e-01   6.3041308e-01   6.0228660e-01   5.3315645e-01   5.9669968e-01   7.6151275e-01   6.0544583e-01   7.3387369e-01   6.9851521e-01   6.7935095e-01   6.1438734e-01   5.9744178e-01   5.4487840e-01   5.2520109e-01   5.2317415e-01   4.8486465e-01   4.9053208e-01   4.5309773e-01   3.7501758e-01   3.7100799e-01   4.8005072e-01   4.2530487e-01   5.0881377e-01   6.8847679e-01   8.3558126e-01   9.8021530e-01   1.1705984e+00   1.3240908e+00   1.5856125e+00   1.7161152e+00   1.9341456e+00   1.9404373e+00   1.8565974e+00   1.7979553e+00   1.6118864e+00   1.4324763e+00   1.1167874e+00   8.6855153e-01   4.8389514e-01   1.0958938e-01  -1.2714050e-01  -3.1815938e-01  -3.9045730e-01  -2.3712713e-01  -3.3023956e-01  -3.6411214e-01  -3.9236640e-01  -4.0263892e-01  -3.5864349e-01  -4.2113622e-01  -3.2743019e-01  -3.8767076e-01  -4.7892311e-01  -4.2738391e-01  -3.3768145e-01  -2.7741627e-01  -2.4917941e-01   1.2690831e-01   7.5740270e-01   8.5381342e-01   8.7943277e-01   1.0265218e+00   1.0746765e+00   8.4694060e-01   5.7368995e-01   8.5798633e-01   1.2024158e+00   6.1324167e-01  -1.6556465e+00
   1.0000000e+00  -9.2021269e-01  -2.4495095e+00  -3.1920276e+00  -3.8751634e+00  -4.1807232e+00  -3.8921772e+00  -3.1562282e+00  -2.0225688e+00  -1.5201389e+00  -1.1702225e+00  -5.9172108e-01  -3.9647627e-01  -4.1005285e-01  -4.4187569e-01  -4.1732916e-01  -4.2305770e-01  -3.1273006e-01  -3.0414413e-01  -3.0352531e-01  -3.4484548e-01  -3.2149730e-01  -2.2451271e-01  -3.5551040e-01  -2.4303292e-01  -3.1106690e-01  -3.9434553e-01  -3.4914971e-01  -3.3717006e-01  -4.2500300e-01  -3.3987118e-01  -3.1567764e-01  -3.7498894e-01  -3.7463538e-01  -4.6719398e-01  -3.8971277e-01  -3.3762768e-01  -4.2568480e-01  -2.5257294e-01  -3.4635428e-01  -2.2780434e-01  -1.8190239e-01  -1.7013342e-01  -7.5184146e-02  -5.5117972e-02   5.7978477e-02  -3.0611937e-02   9.3540119e-02   1.0650889e-01   1.8256499e-01   1.7340756e-01   1.5274786e-01   1.7927537e-01   1.2103317e-01   1.6948828e-01   1.0872204e-01   1.6637585e-01   1.4490430e-01   2.0499389e-01   1.9213428e-01   1.1082794e-01   1.6703457e-01   1.4103825e-01   1.7080344e-01   2.2293486e-01   2.6776037e-01   3.1807691e-01   2.6640339e-01   3.2930595e-01   3.7284243e-01   3.6188937e-01   4.2514223e-01   5.3365866e-01   4.1462160e-01   5.3391196e-01   5.1904957e-01   5.3886307e-01   5.9249776e-01   5.3310578e-01   5.4039423e-01   6.4966984e-01   6.1520821e-01   5.2459282e-01   4.6795155e-01   5.2266134e-01   5.3384419e-01   5.0274413e-01   4.9962214e-01   3.8647544e-01   3.8632762e-01   4.9503317e-01   4.2799711e-01   4.0711516e-01   4.7528623e-01   4.9998032e-01   6.9165004e-01   8.4566192e-01   1.0553762e+00   1.1936459e+00   1.2772052e+00   1.4663071e+00   1.6674008e+00   1.9156015e+00   1.9280549e+00   1.8639853e+00   1.8670685e+00   1.6940862e+00   1.4754697e+00   1.3196559e+00   1.0656747e+00   8.9766616e-01   6.7712457e-01   2.4714371e-01   4.9676504e-02  -8.6538702e-02  -1.3490496e-01  -1.7308643e-01  -1.7088711e-01  -1.0809801e-01  -1.6925271e-01  -1.5074175e-01  -9.8640770e-02  -9.5393694e-02  -1.7334648e-01  -1.7934131e-01  -2.0345963e-01  -1.6022208e-01  -1.1141973e-01  -3.3919090e-02   2.7296036e-01   8.0906609e-01   1.4302895e+00   1.3466755e+00   9.9819255e-01   2.3454213e-01  -6.2493364e-01  -1.1341003e+00  -1.2635559e+00  -9.6427199e-01  -3.7083214e-01  -1.0404894e+00
   1.0000000e+00   2.7446026e+00  -1.0192395e-01  -2.8516809e+00  -3.9749087e+00  -3.9954373e+00  -3.7196635e+00  -2.6809699e+00  -1.4416390e+00  -1.1668635e+00  -6.5717801e-01   1.9802989e-01   3.2560922e-01   2.4802392e-01   2.1410455e-01   2.3123470e-01   1.5602696e-01   1.8260884e-01  -1.7426684e-02   8.0068624e-02   1.7351764e-01  -5.4520943e-03   8.8091770e-02  -6.0666510e-02  -6.1423634e-02  -2.3860138e-01  -1.1370367e-01  -2.0938474e-01  -2.8177691e-01  -2.2544060e-01  -4.0003596e-01  -3.4852623e-01  -5.4806559e-01  -6.3013946e-01  -5.9565712e-01  -6.7086368e-01  -6.6044288e-01  -6.7935651e-01  -5.5530684e-01  -6.1619400e-01  -6.2244661e-01  -4.6646307e-01  -4.4755099e-01  -4.2212896e-01  -4.2526753e-01  -2.6615390e-01  -1.0979095e-01  -9.0907536e-02   4.0707874e-02  -1.5153917e-02   9.8671804e-02   1.5602186e-01   9.8989970e-02   1.0749287e-01   1.1013242e-01   1.3155461e-01   1.7084545e-01   1.9566172e-01   1.9983166e-01   2.1016696e-01   2.3489276e-01   2.0217599e-01   2.6879019e-01   2.6429342e-01   2.7906444e-01   3.8569496e-01   3.4877103e-01   3.8672994e-01   4.0572022e-01   4.0813245e-01   5.0926479e-01   4.4136309e-01   5.8979889e-01   5.9175812e-01   5.6674437e-01   5.6212416e-01   4.4679032e-01   5.3317478e-01   4.8217058e-01   4.5638518e-01   4.1738415e-01   4.1448074e-01   4.0134800e-01   3.0965594e-01   2.8735340e-01   2.5443549e-01   2.4627087e-01   1.9433849e-01   1.2471424e-01   2.0298548e-01   1.1132273e-01   1.9316855e-01   1.0161629e-01   1.2920063e-01   2.1761540e-01   2.8361275e-01   4.1857961e-01   5.8901054e-01   8.3914654e-01   1.0475469e+00   1.2788147e+00   1.5889406e+00   1.9124875e+00   2.1550011e+00   1.9325243e+00   1.7873729e+00   1.7160542e+00   1.3623743e+00   1.0701441e+00   6.8076116e-01   4.0139460e-01   9.2853713e-02  -4.8515570e-01  -7.6519087e-01  -8.1784633e-01  -8.1884361e-01  -7.5210186e-01  -8.4816490e-01  -8.9043512e-01  -8.2548985e-01  -7.8801503e-01  -9.6854557e-01  -8.8286201e-01  -7.7959626e-01  -9.1587261e-01  -9.6062332e-01  -8.7370080e-01  -9.0314839e-01  -8.2085190e-01  -4.9385555e-01   2.1113998e-01   5.0360870e-01   4.5144067e-01   8.0277864e-01   8.8392204e-01   8.9531990e-01   8.4012611e-01   1.3051815e+00   2.1146869e+00   1.5902704e+00  -1.9219276e+00
   1.0000000e+00   2.4028692e+00   2.0367190e+00   3.4090237e-01  -1.2864359e+00  -3.3014551e+00  -4.2245689e+00  -3.3983068e+00  -2.0793023e+00  -1.5979055e+00  -1.5279736e+00  -7.5556017e-02   1.5018446e-01  -1.8965012e-02   1.5663253e-01   8.3514438e-02   5.4505576e-02   6.3978010e-02  -1.0487020e-02  -7.4013727e-02  -1.0897484e-01  -2.6492113e-02  -2.3756575e-01  -2.1214982e-01  -2.7712782e-01  -3.7903349e-01  -3.2254435e-01  -4.8713548e-01  -6.5077272e-01  -7.0534842e-01  -7.0664499e-01  -9.2590132e-01  -8.6620990e-01  -9.9841442e-01  -1.1268470e+00  -1.3522409e+00  -1.4065604e+00  -1.3555018e+00  -1.4577180e+00  -1.4997178e+00  -1.5850003e+00  -1.4679456e+00  -1.3721720e+00  -1.3730991e+00  -1.2589068e+00  -1.0889847e+00  -9.2281284e-01  -9.1731210e-01  -6.4988360e-01  -5.7360531e-01  -3.5838517e-01  -3.6869867e-01  -3.2218233e-01  -2.3477210e-01  -3.8168321e-01  -2.2551155e-01  -1.5688768e-01  -1.0989784e-01  -4.5662064e-02   5.7007987e-02  -4.4050464e-03   2.4535640e-01   8.6985038e-02   1.1544610e-01   2.2758341e-01   2.0257055e-01   2.6671901e-01   1.4088738e-01   3.7303201e-01   4.5446408e-01   4.2525272e-01   6.0888085e-01   4.0595386e-01   5.6530587e-01   5.1118929e-01   6.0684592e-01   5.4951025e-01   5.0974454e-01   7.8727949e-01   6.1515125e-01   5.3754415e-01   5.8858151e-01   5.8357135e-01   5.7533841e-01   4.7906200e-01   5.1443781e-01   5.8001535e-01   4.6947286e-01   3.8714849e-01   4.2924352e-01   4.6601572e-01   4.0643673e-01   3.2298924e-01   2.0490050e-01   1.7274564e-01   3.6359224e-01   1.9390179e-01   1.8450980e-01   1.8137323e-01   2.5996650e-01   2.4193444e-01   4.2826528e-01   2.3032876e-01   1.1846871e-01   1.7731718e-01   4.4046951e-01   4.4224902e-01   6.3561819e-01   1.1076544e+00   1.4457986e+00   1.4092977e+00   1.1878451e+00   1.1434059e+00   8.9119047e-01   7.1810525e-01   9.0452113e-01   8.3995397e-01   4.9346968e-01   1.2504912e-01  -3.0902264e-01  -3.2715519e-01  -2.6980512e-01  -2.1065767e-01  -2.2993566e-01  -2.2410193e-01  -2.1592104e-01  -2.3121885e-01  -1.0172133e-01  -1.2929552e-01   7.3680101e-03  -3.4076312e-02   1.1813815e-01   4.1608709e-01   1.1149831e+00   8.9916395e-01   1.1545248e+00   1.9873284e+00   2.4287317e+00   2.6139868e+00   1.9628195e+00   1.7691982e+00
   1.0000000e+00  -1.3622631e+00  -3.3530235e+00  -3.9756571e+00  -4.2282265e+00  -3.7996727e+00  -3.2181190e+00  -2.0492910e+00  -1.5296725e+00  -1.2974544e+00  -8.3059008e-01  -4.2436503e-01  -4.7203471e-01  -5.1516888e-01  -4.0258721e-01  -4.3984377e-01  -4.0805466e-01  -3.4322968e-01  -3.8626221e-01  -4.4859756e-01  -4.4478779e-01  -4.6136538e-01  -3.5765502e-01  -4.5114956e-01  -4.5308283e-01  -4.1227691e-01  -4.5107308e-01  -3.9035850e-01  -4.6497817e-01  -4.5665371e-01  -6.1793431e-01  -6.2550533e-01  -5.9844355e-01  -6.7672941e-01  -6.6020892e-01  -6.5055473e-01  -6.2648659e-01  -5.7630822e-01  -6.1395077e-01  -5.4016171e-01  -4.7888403e-01  -4.8626422e-01  -4.3574460e-01  -4.0404034e-01  -2.9283292e-01  -1.7227963e-01  -5.5059062e-02  -3.9811028e-02  -2.1250817e-02   2.1225858e-02   3.2141501e-02   5.5192555e-03   7.8736856e-02   5.7119396e-02  -1.1383557e-02   6.2648614e-02   1.8703334e-02   6.6690407e-02   3.6431097e-02   6.7354200e-02   1.1526150e-01   4.2019669e-02   1.2611329e-01   3.1845278e-02  -5.0344263e-03   2.5914945e-01   1.9144553e-01   2.8882797e-01   2.0886200e-01   2.7987512e-01   2.8161752e-01   3.0407420e-01   3.6857037e-01   3.6852886e-01   4.8424656e-01   4.5195308e-01   5.3652412e-01   4.4951282e-01   5.0890800e-01   5.9790349e-01   6.5801959e-01   6.1776177e-01   6.2312973e-01   6.1290676e-01   5.6066240e-01   5.6296018e-01   5.5307739e-01   5.0082801e-01   5.3918461e-01   4.1686391e-01   5.0496427e-01   4.8994675e-01   5.1285718e-01   5.5113786e-01   6.0617560e-01   7.1442683e-01   8.4235569e-01   9.9378893e-01   1.1099169e+00   1.1483134e+00   1.3754203e+00   1.6109722e+00   1.7430714e+00   1.7895363e+00   1.6545782e+00   1.5758174e+00   1.4343887e+00   1.3748985e+00   1.0634260e+00   8.6959095e-01   5.8586802e-01   2.6028238e-01   1.3745371e-01   3.4019054e-02  -1.9212965e-02   2.6099144e-02  -7.8532135e-02  -6.5535432e-02  -6.0685538e-05  -7.0388093e-04  -1.0944542e-01  -8.2693936e-02  -7.2762410e-02  -2.5459230e-02   1.8727637e-02   1.7723386e-03   5.4476173e-02   1.0278866e-02   2.3725283e-01   7.6055281e-01   1.0643457e+00   1.1205282e+00   1.3098261e+00   1.4681510e+00   1.2678399e+00   8.7240877e-01   6.3855492e-01   9.1927041e-01   7.1614672e-01  -3.5122193e-01  -2.2346511e+00
   1.0000000e+00   1.9354139e+00  -5.4876161e-01  -2.3433933e+00  -3.3785997e+00  -4.2434162e+00  -4.1082127e+00  -3.0448110e+00  -1.6656152e+00  -1.4281689e+00  -1.0200895e+00  -1.1958602e-01   1.9645346e-01   1.1236011e-01   1.3679900e-01   1.8311460e-01   1.1482262e-01   1.3970984e-01   6.4160771e-02  -7.6424762e-02   1.1964848e-01   4.7738227e-02  -8.8085120e-02  -1.6747814e-01  -8.7828767e-02  -2.2899225e-01  -1.9830621e-01  -2.1673233e-01  -2.9271651e-01  -3.7732390e-01  -4.5814820e-01  -5.8024211e-01  -5.9794755e-01  -5.5775502e-01  -6.7927402e-01  -7.1476452e-01  -6.5671930e-01  -7.4916196e-01  -7.4145114e-01  -7.7261964e-01  -7.9419029e-01  -6.2048718e-01  -5.2279613e-01  -3.8184607e-01  -4.2528796e-01  -4.6277407e-01  -2.9762258e-01  -1.4937218e-01  -8.9397028e-02  -6.7538487e-02  -3.5564051e-02   1.2312978e-02   7.9290433e-03   4.6252931e-02  -1.5729175e-03   1.7067388e-01   1.4817795e-01   1.5326900e-01   1.3371903e-01   7.9181531e-02   2.3618725e-01   1.8735324e-01   1.9535187e-01   2.5764088e-01   1.9105036e-01   2.1327837e-01   2.3697164e-01   3.2188255e-01   3.0056747e-01   3.4675211e-01   3.8094928e-01   4.2678163e-01   5.4205084e-01   5.2227832e-01   3.2599425e-01   3.7182427e-01   3.9498241e-01   4.2673111e-01   4.2251283e-01   4.0811466e-01   4.8273231e-01   3.3924359e-01   2.5099616e-01   3.1871522e-01   3.2999429e-01   4.3766247e-01   2.8029477e-01   3.6635703e-01   2.0082264e-01   2.5016819e-01   2.0604908e-01   2.3720670e-01   2.5328282e-01   1.1064083e-01   1.6059341e-01   1.8840150e-01   2.9655201e-01   6.4633559e-01   7.9985963e-01   1.0738657e+00   1.0875983e+00   1.2857696e+00   1.5006405e+00   1.8099441e+00   2.2429331e+00   2.1416854e+00   1.9899798e+00   1.7838311e+00   1.7000464e+00   1.4599993e+00   1.1057346e+00   8.6617063e-01   1.5670857e-01  -3.7163408e-01  -5.1717482e-01  -5.7012049e-01  -7.1142397e-01  -6.4748321e-01  -8.0954028e-01  -7.5343851e-01  -7.6874808e-01  -7.5939516e-01  -7.5445924e-01  -6.8913011e-01  -7.4411385e-01  -7.2209755e-01  -7.7188463e-01  -7.1977463e-01  -7.0657003e-01  -5.6007946e-01  -1.6698680e-01   3.7100183e-01   5.4841757e-01   9.3738971e-01   1.2248676e+00   1.2933998e+00   1.1836717e+00   1.0941214e+00   1.5880921e+00   1.8711056e+00  -1.2487458e+00
   1.0000000e+00  -1.8627470e+00  -3.2036327e+00  -3.6341531e+00  -4.1693744e+00  -3.8880809e+00  -3.2758404e+00  -2.1004304e+00  -1.6623015e+00  -1.4397477e+00  -7.5266185e-01  -4.4549375e-01  -4.5413288e-01  -4.7613880e-01  -5.0550685e-01  -4.9158515e-01  -3.4366539e-01  -4.0914391e-01  -4.2199940e-01  -4.4125915e-01  -5.1948860e-01  -3.3920061e-01  -3.7733440e-01  -3.5424806e-01  -3.5669867e-01  -4.9676656e-01  -4.9409601e-01  -3.6678391e-01  -3.6253913e-01  -4.4196693e-01  -3.2685485e-01  -3.4194356e-01  -3.7759439e-01  -4.0221446e-01  -3.4010565e-01  -4.1440617e-01  -3.1969230e-01  -2.7434111e-01  -3.5593264e-01  -2.7299992e-01  -2.0626303e-01  -1.5637955e-01  -1.4352540e-01  -1.1830015e-01  -2.3490256e-01  -1.0315541e-01  -8.7832700e-03   4.9864226e-02  -2.8025459e-02   3.4272462e-02   5.7320583e-02  -1.6121597e-02  -2.0875600e-03   5.9489001e-04  -3.8257248e-03   4.6449214e-02  -5.5238788e-03  -1.0946276e-02   1.7766163e-02  -2.0078429e-03  -8.1315893e-02  -1.4966009e-02  -2.3964874e-02  -1.2726303e-02  -2.9349474e-02   8.6248247e-02   6.5663412e-02  -5.8436044e-02   1.6384351e-01   2.7792196e-01   1.7409647e-01   1.9389366e-01   2.7812106e-01   3.8732614e-01   4.1718472e-01   3.8385835e-01   4.8625233e-01   4.8641375e-01   4.9536625e-01   5.8442818e-01   6.2554179e-01   6.6185102e-01   6.8364795e-01   6.8090778e-01   5.9428431e-01   5.3722840e-01   5.6968507e-01   5.7739664e-01   5.3179604e-01   5.9463077e-01   6.2071370e-01   5.1427007e-01   4.7037098e-01   4.9686007e-01   5.8112647e-01   5.3071900e-01   8.1476495e-01   1.0114023e+00   1.0836272e+00   1.3344553e+00   1.4147444e+00   1.6723684e+00   1.9719198e+00   2.1296933e+00   2.1805321e+00   2.0759711e+00   1.8886251e+00   1.7297516e+00   1.4535628e+00   1.3362974e+00   1.0414771e+00   8.8400103e-01   5.8579182e-01   1.1928472e-01   5.0663186e-02  -4.4869993e-02  -9.0907327e-02  -4.3910200e-02   5.1939961e-02  -2.2551987e-01  -1.9840684e-01  -4.2490291e-02  -1.1682405e-01  -1.2270507e-01  -2.1550777e-01  -1.1633065e-01  -9.6284751e-02  -1.3903083e-02   9.5774707e-02   2.1762874e-01   7.5541792e-01   1.2690534e+00   1.2328221e+00   9.0270118e-01   3.7600261e-01  -3.1828068e-01  -6.7593442e-01  -8.4912217e-01  -7.8116739e-01  -3.0229300e-01  -6.1002273e-01
   1.0000000e+00  -9.9857184e-01  -2.8897248e+00  -3.3877792e+00  -3.5106386e+00  -2.9968963e+00  -2.2804124e+00  -1.7001960e+00  -1.5611074e+00  -1.0948267e+00  -9.2235086e-01  -9.3785499e-01  -8.7848320e-01  -8.8296422e-01  -8.8192933e-01  -9.0866771e-01  -8.2307862e-01  -8.5934335e-01  -8.8218040e-01  -8.7391177e-01  -8.8044505e-01  -8.0895567e-01  -8.8683291e-01  -9.2602309e-01  -9.0180834e-01  -9.2022015e-01  -9.2535499e-01  -8.8331768e-01  -9.3170920e-01  -9.9367519e-01  -9.1165229e-01  -9.6074319e-01  -9.9347461e-01  -1.0409567e+00  -1.0739878e+00  -1.0082340e+00  -1.0061943e+00  -1.0304824e+00  -9.5906716e-01  -8.9063520e-01  -8.7814860e-01  -7.7507971e-01  -6.8703530e-01  -6.6475871e-01  -5.9530130e-01  -5.0909821e-01  -4.2626407e-01  -4.4355598e-01  -3.9454227e-01  -4.1683460e-01  -3.8282671e-01  -2.8068833e-01  -2.8925165e-01  -2.5998195e-01  -2.7150640e-01  -2.4758514e-01  -1.5726946e-01  -2.3002316e-01  -1.3092003e-01  -1.5092381e-01  -1.1227460e-01  -6.6530843e-02  -6.8022442e-02  -2.5683045e-02  -6.4316853e-02   7.3704771e-02   8.2570633e-02   6.7146488e-02   1.5832731e-01   2.0989140e-01   2.2255959e-01   2.8371631e-01   2.6865946e-01   2.4374031e-01   3.3358540e-01   3.6023081e-01   4.2749618e-01   4.1436887e-01   3.9189828e-01   4.0406150e-01   4.9267965e-01   4.5348147e-01   4.0418070e-01   5.1681136e-01   4.5885891e-01   4.6972151e-01   4.7500040e-01   4.6926579e-01   4.5131178e-01   5.0014000e-01   5.2043581e-01   4.9295983e-01   5.3082938e-01   5.6105319e-01   5.5117310e-01   6.5178524e-01   6.4180980e-01   7.3581919e-01   8.7732018e-01   9.7527227e-01   1.0435107e+00   1.1718094e+00   1.3105026e+00   1.3792612e+00   1.4075101e+00   1.4066040e+00   1.3662523e+00   1.2347971e+00   1.2290520e+00   1.1408462e+00   1.0293558e+00   8.6943579e-01   7.0750348e-01   6.2642132e-01   5.7351075e-01   5.7377744e-01   5.6218941e-01   5.9570127e-01   5.8556050e-01   6.4276998e-01   6.3787059e-01   5.8150792e-01   6.2787035e-01   6.3706215e-01   6.6031076e-01   7.3367111e-01   7.4197698e-01   7.3846322e-01   8.9510572e-01   1.1456675e+00   1.3816389e+00   1.4203026e+00   1.3371892e+00   1.3936424e+00   1.3733062e+00   1.3121560e+00   1.2463692e+00   1.4304958e+00   1.6350927e+00   1.5209621e+00   6.5421129e-01
   1.0000000e+00  -2.8834122e-01  -2.2725454e+00  -3.6660708e+00  -4.2827374e+00  -3.7242411e+00  -2.8432282e+00  -1.8749167e+00  -1.5312512e+00  -1.1943884e+00  -5.4127413e-01  -3.9303124e-01  -4.3113007e-01  -3.8249414e-01  -3.8552710e-01  -3.9781294e-01  -3.8000766e-01  -4.4965858e-01  -3.8291185e-01  -4.0528287e-01  -4.4655153e-01  -4.1801188e-01  -5.2242672e-01  -5.8660627e-01  -5.4189127e-01  -5.2803501e-01  -6.3045800e-01  -6.7773875e-01  -7.8250762e-01  -7.5699531e-01  -8.0657163e-01  -8.1540982e-01  -9.4057025e-01  -9.2872992e-01  -8.5004840e-01  -1.0483438e+00  -1.0571464e+00  -9.9891405e-01  -8.4962650e-01  -8.1930128e-01  -9.4959214e-01  -7.3403551e-01  -6.9334927e-01  -6.9371939e-01  -5.7494089e-01  -5.2024087e-01  -3.7474237e-01  -2.7194483e-01  -2.3045706e-01  -1.6232497e-01  -1.2311519e-01  -1.2781058e-01  -3.8097814e-02   2.5011559e-02   2.7463935e-02  -3.3556658e-02  -6.3766352e-02   1.9662478e-02   3.6088755e-03   7.4925119e-02   5.9023380e-02   5.4363708e-02   5.5622915e-02   1.9214859e-01   1.8491272e-01   1.9466048e-01   2.4265443e-01   1.9634445e-01   2.5615634e-01   2.9341576e-01   3.5688955e-01   3.7953010e-01   3.6416320e-01   4.4100451e-01   5.1529898e-01   5.4605908e-01   5.8395612e-01   5.6825452e-01   5.6723801e-01   5.2694035e-01   4.5524263e-01   5.5270319e-01   5.4003814e-01   4.1841920e-01   4.3464404e-01   3.8302869e-01   4.7567602e-01   5.5452503e-01   4.4338743e-01   4.4678474e-01   3.3347381e-01   3.0718029e-01   4.2123391e-01   3.7668933e-01   4.4819125e-01   5.9049670e-01   5.9361885e-01   7.3164423e-01   9.2258976e-01   1.0506714e+00   1.1494727e+00   1.3856690e+00   1.5852644e+00   2.0063573e+00   1.8395934e+00   1.7441506e+00   1.6606667e+00   1.4390026e+00   1.3449961e+00   1.2078937e+00   9.5911902e-01   5.7248896e-01   2.8502133e-01   1.9181261e-02  -1.6476017e-01  -1.7150074e-01  -2.1064068e-01  -1.9101575e-01  -1.9450168e-01  -2.2492012e-01  -8.1659856e-02  -1.4759527e-01  -1.9635249e-01  -2.7733297e-01  -1.8988301e-01  -1.3429032e-01  -2.6244434e-01  -1.9728138e-01  -8.0188709e-02   9.2408728e-02   6.5875227e-01   1.1474335e+00   1.1623200e+00   1.2117657e+00   1.5263299e+00   1.7705728e+00   1.6156545e+00   1.2932948e+00   1.2431312e+00   1.7227841e+00   1.2959242e+00
   1.0000000e+00   5.3974315e-01   6.6577827e-01  -1.2755868e+00  -2.8466725e+00  -3.4999203e+00  -4.3828256e+00  -3.9606595e+00  -2.6571292e+00  -1.9283256e+00  -1.6057499e+00  -4.9802437e-01  -1.5959131e-01  -2.6229433e-01  -2.1580660e-01  -3.5805719e-01  -1.2267895e-01  -1.9591795e-01  -2.3573009e-01  -2.5887652e-01  -2.8534302e-01  -2.7224294e-01  -2.0864832e-01  -3.5890051e-01  -3.3653484e-01  -3.0833428e-01  -4.7299037e-01  -4.6103638e-01  -6.7795670e-01  -5.5690240e-01  -6.3148847e-01  -6.4732156e-01  -6.2686692e-01  -7.4758454e-01  -8.1791668e-01  -8.7850089e-01  -1.0072365e+00  -8.8886279e-01  -9.1875823e-01  -8.8380344e-01  -9.1614426e-01  -7.8574266e-01  -7.4282516e-01  -7.7872712e-01  -5.2738876e-01  -4.5069637e-01  -3.3725634e-01  -4.4836277e-01  -2.0223055e-01  -5.2745098e-02   5.0060651e-02   3.1233480e-02   1.9030958e-02   7.7311606e-02   1.5275405e-01   2.2407072e-01   1.8285287e-01   1.7402101e-01   2.1317111e-01   1.9662193e-01   3.0386597e-01   3.2717282e-01   2.4945462e-01   3.5215131e-01   2.8454264e-01   4.1482284e-01   3.6379539e-01   3.7091726e-01   4.4168846e-01   5.2934750e-01   5.1479212e-01   5.9539387e-01   6.1620006e-01   6.2272280e-01   6.7989023e-01   6.9780189e-01   6.6438999e-01   6.0376282e-01   5.8132698e-01   5.4369895e-01   6.0798227e-01   5.7500270e-01   5.8186460e-01   4.5329898e-01   5.4875176e-01   4.6008439e-01   4.0377508e-01   4.3668718e-01   3.0319839e-01   5.2220955e-01   4.2011605e-01   4.0439069e-01   4.2606907e-01   3.2299880e-01   3.8252697e-01   3.7488573e-01   2.4600978e-01   3.7031417e-01   3.3645748e-01   3.1923742e-01   2.8739721e-01   4.4056391e-01   5.6053580e-01   6.7259180e-01   9.8308367e-01   1.2509870e+00   1.2321225e+00   1.6037983e+00   2.0192474e+00   2.3689359e+00   2.4217417e+00   2.3249546e+00   2.0540158e+00   1.7484411e+00   1.4691410e+00   9.5481296e-01   2.5551384e-01  -2.5678169e-01  -3.1245957e-01  -4.6307532e-01  -3.5810362e-01  -3.6192758e-01  -3.1974422e-01  -4.2845150e-01  -2.9101471e-01  -4.1659440e-01  -4.5404297e-01  -3.7163922e-01  -3.6891769e-01  -2.9577989e-01  -4.6945451e-01  -3.2955958e-01  -2.3512916e-01   5.7473238e-01   1.0586076e+00   8.8663354e-01   1.2658479e+00   8.9577687e-01  -1.5879698e-02  -7.0528326e-01   3.7302077e-02
   1.0000000e+00  -1.1812944e+00  -2.3030416e+00  -2.8690724e+00  -3.9477131e+00  -4.5017257e+00  -4.1726360e+00  -2.8633193e+00  -1.8925259e+00  -1.6618946e+00  -9.0185366e-01  -4.2296226e-01  -3.5216932e-01  -3.1962272e-01  -3.6245310e-01  -3.2147097e-01  -3.1601848e-01  -3.0239989e-01  -2.9278875e-01  -3.1629042e-01  -3.7401649e-01  -4.0876531e-01  -3.7756213e-01  -4.5878602e-01  -3.2972626e-01  -3.5042867e-01  -3.9057060e-01  -3.7661534e-01  -4.9349652e-01  -5.3217646e-01  -5.2083634e-01  -5.2683960e-01  -5.8827527e-01  -7.0819185e-01  -5.8291442e-01  -6.7049856e-01  -6.9652830e-01  -6.0066302e-01  -6.6001072e-01  -5.5897566e-01  -5.0964290e-01  -4.8079228e-01  -4.3953457e-01  -2.3169533e-01  -2.7486931e-01  -1.3580341e-01  -4.5989237e-02  -3.7749591e-02  -2.4957385e-02   4.1773124e-02   9.4939229e-02   3.6344124e-02   7.9783582e-02  -1.0793479e-02  -2.0771365e-02   6.2471703e-02   5.2274774e-02   3.4358128e-02   7.6343822e-02   1.1036141e-01   1.5902515e-01   1.5518926e-01   8.4530364e-02   1.4621472e-01   1.8893519e-01   1.7280614e-01   2.2756541e-01   3.4336578e-01   3.5084977e-01   3.7532397e-01   5.0768326e-01   5.2078155e-01   5.0579043e-01   6.2816008e-01   6.0065274e-01   6.1150578e-01   7.6158247e-01   7.2790847e-01   7.1032176e-01   7.2544749e-01   7.2428615e-01   6.9950391e-01   6.3137928e-01   6.5440274e-01   6.4315478e-01   5.5239524e-01   5.5395403e-01   4.9972895e-01   4.8831783e-01   5.4464440e-01   4.6806798e-01   4.5689787e-01   3.4836897e-01   3.9454985e-01   3.7838279e-01   4.4911324e-01   4.4913234e-01   4.7119333e-01   6.0283921e-01   7.2805079e-01   9.5745114e-01   9.8208292e-01   1.1941290e+00   1.3256549e+00   1.5597034e+00   1.8182718e+00   1.7785442e+00   1.7723479e+00   1.4862491e+00   1.2911061e+00   1.1543137e+00   9.4550311e-01   7.0445071e-01   3.7119435e-01   1.2273796e-01  -1.6343212e-01  -2.3602729e-01  -2.5884412e-01  -2.1934264e-01  -2.3623563e-01  -2.6963146e-01  -2.7091142e-01  -2.4565979e-01  -2.4686440e-01  -2.8418314e-01  -2.9290940e-01  -2.4888735e-01  -2.3173258e-01  -2.1391020e-01  -1.3051102e-01  -2.5714434e-03   5.2720359e-01   1.3251665e+00   1.3793144e+00   1.5430673e+00   1.7885211e+00   1.5066106e+00   7.7410683e-01  -1.3012066e-01  -2.8587388e-01  -4.5100638e-01
   1.0000000e+00   1.5319341e+00   9.2006083e-01  -4.9019514e-01  -2.0132361e+00  -2.8349715e+00  -3.4859333e+00  -3.2619857e+00  -2.3102226e+00  -1.7047485e+00  -1.6784920e+00  -1.0249631e+00  -4.6375571e-01  -4.0598830e-01  -4.7395269e-01  -5.4447040e-01  -5.4019877e-01  -3.8263593e-01  -5.2568892e-01  -5.2663255e-01  -4.8389023e-01  -5.2939911e-01  -6.0754668e-01  -5.3614193e-01  -5.5977808e-01  -6.3062482e-01  -6.4403399e-01  -7.1965775e-01  -7.4621216e-01  -8.0129161e-01  -8.3125147e-01  -9.3636305e-01  -9.9338465e-01  -1.0413056e+00  -9.9045376e-01  -1.0151654e+00  -1.1421224e+00  -1.0958733e+00  -1.1345867e+00  -1.2256366e+00  -1.2343389e+00  -1.0326370e+00  -1.0616449e+00  -9.6872443e-01  -8.9106257e-01  -8.9706557e-01  -6.9918268e-01  -5.6970454e-01  -4.8672667e-01  -4.3495531e-01  -4.4529865e-01  -3.3163052e-01  -4.0143314e-01  -2.5576798e-01  -2.9564955e-01  -1.8228980e-01  -2.6271806e-01  -2.0728578e-01  -1.4138264e-01  -2.3077390e-01  -2.7017360e-01  -1.1682102e-01  -6.6774103e-02  -8.5408819e-02  -7.5672403e-02  -1.0625849e-01  -5.6186868e-02  -5.6800564e-02   3.2967904e-02   7.9746030e-02   6.6111301e-02   1.1430137e-01   1.4449090e-01   2.0035268e-01   1.9316619e-01   2.1511008e-01   1.9237102e-01   2.1973675e-01   3.0044423e-01   3.5348397e-01   3.7657857e-01   2.8097237e-01   2.9525002e-01   3.2323472e-01   3.0642285e-01   1.9566208e-01   3.3184921e-01   3.1566277e-01   2.2959631e-01   2.7106936e-01   1.7288257e-01   2.3228515e-01   2.7666619e-01   2.7941326e-01   2.5461311e-01   2.5710105e-01   2.3943788e-01   2.5534277e-01   3.1346393e-01   3.2302693e-01   5.4824470e-01   6.6351336e-01   9.3341219e-01   1.1133700e+00   1.2649505e+00   1.3222861e+00   1.5413300e+00   1.9338962e+00   2.1014058e+00   2.1077607e+00   1.8906618e+00   1.7563078e+00   1.4807247e+00   1.2897951e+00   1.1097743e+00   7.9368808e-01   3.9240792e-01   2.1936851e-01   1.5716344e-01   1.8283827e-01   1.5403899e-01   1.8804016e-01   2.4156420e-01   1.6335092e-01   1.6571961e-01   2.1379007e-01   2.7231647e-01   2.9743529e-01   2.9761111e-01   3.4612920e-01   3.7220553e-01   5.2370210e-01   1.0161069e+00   1.2796179e+00   1.3614617e+00   1.7812398e+00   1.9776585e+00   2.2260395e+00   1.6367639e+00   1.8501208e+00   1.9345383e+00
   1.0000000e+00  -3.5278988e+00  -5.1176214e+00  -4.6348854e+00  -4.2264821e+00  -3.1004608e+00  -1.8977234e+00  -1.3063794e+00  -9.5246355e-01  -2.2899584e-01  -9.6762767e-02  -1.0039939e-01  -1.4531562e-01  -2.2673238e-01  -2.0863061e-01  -1.1870038e-01  -1.2326716e-01  -1.1270093e-01  -9.2833172e-02  -1.1836132e-01  -1.6458403e-01  -2.0724292e-01  -2.3547250e-01  -2.0329389e-01  -3.1138667e-01  -2.0927968e-01  -3.3625295e-01  -3.2384776e-01  -3.0343790e-01  -4.6315128e-01  -4.6810003e-01  -5.2522517e-01  -5.1709173e-01  -4.9090168e-01  -5.1979725e-01  -4.8299720e-01  -5.2502126e-01  -4.7864142e-01  -4.4987616e-01  -3.7106151e-01  -3.8265832e-01  -3.1493480e-01  -2.7689817e-01  -1.9122278e-01  -6.3774495e-02   1.0648972e-02   1.2829405e-01   1.1960891e-01   5.6184450e-02   1.2402610e-01   2.9956025e-02   1.2554694e-01   6.8790394e-02   1.1145748e-01   1.3217555e-01   1.3028400e-01   2.5444573e-01   1.4509803e-01   1.1610713e-01   1.8401278e-01   1.7098627e-01   2.1093189e-01   1.6077589e-01   1.9382443e-01   2.4373129e-01   1.6759281e-01   2.3573399e-01   2.1708743e-01   3.6530803e-01   4.0437415e-01   4.9726146e-01   4.7388264e-01   4.9958306e-01   5.7845532e-01   5.5124725e-01   5.3082538e-01   5.1126302e-01   5.6318346e-01   4.9229337e-01   5.3199966e-01   3.9049468e-01   4.1995837e-01   4.5222366e-01   4.6779410e-01   3.4265229e-01   3.4846811e-01   3.6427926e-01   4.5477018e-01   3.5674341e-01   2.5977291e-01   2.0937706e-01   3.2958390e-01   3.5632333e-01   3.4212987e-01   4.5238258e-01   3.8016142e-01   5.7838519e-01   7.5379566e-01   9.4876976e-01   1.1072944e+00   1.2456671e+00   1.4418087e+00   1.6185204e+00   1.9077949e+00   1.7563464e+00   1.7514610e+00   1.6080901e+00   1.5092519e+00   1.1400909e+00   1.0280192e+00   7.6389657e-01   3.0182115e-01   9.7500333e-02  -2.8198831e-01  -3.1687630e-01  -3.0189454e-01  -4.2390934e-01  -3.5410328e-01  -4.6057341e-01  -4.2164963e-01  -3.7022628e-01  -3.6738084e-01  -3.3985916e-01  -4.9681088e-01  -4.3025647e-01  -3.7415261e-01  -3.2147476e-01  -3.3527052e-01  -2.5728506e-01  -3.3733438e-02   3.5022026e-01   6.8510854e-01   7.5605137e-01   9.6795751e-01   9.7546498e-01   9.1487281e-01   6.4002228e-01   5.1170596e-01   5.2346601e-01   8.0512981e-01  -9.1239468e-01
   1.0000000e+00  -7.7586665e-01  -3.4141412e+00  -4.0897041e+00  -4.0645668e+00  -4.0340122e+00  -3.6645482e+00  -2.4578752e+00  -1.2954524e+00  -1.2498051e+00  -8.3788186e-01  -2.5690192e-01  -2.2376786e-01  -3.1944246e-01  -2.4578289e-01  -2.9114140e-01  -3.1241420e-01  -2.8363454e-01  -2.4817583e-01  -2.4672239e-01  -3.1293595e-01  -2.7232791e-01  -2.8380233e-01  -3.6983097e-01  -3.2725332e-01  -3.2802597e-01  -3.5590020e-01  -3.1206165e-01  -4.3861477e-01  -4.1395306e-01  -4.2674374e-01  -4.0046796e-01  -5.2517868e-01  -4.8744114e-01  -4.8894671e-01  -5.2939568e-01  -5.6711283e-01  -6.1573041e-01  -4.5669982e-01  -4.5863346e-01  -4.9072884e-01  -4.5091905e-01  -3.9283560e-01  -2.5424995e-01  -2.5761573e-01  -1.9182119e-01  -1.3785891e-01  -1.0702689e-01  -6.9024033e-02  -2.3093408e-02  -2.5411365e-02   4.6335772e-02   2.2994897e-02  -4.6547880e-02  -3.9304581e-02  -9.4578251e-02  -1.2033971e-02  -8.5144908e-02  -6.0454700e-02   2.1065185e-02   1.3211655e-02   5.5273358e-02  -2.7854257e-03   6.9090761e-02   1.4216315e-01   9.5263275e-02   1.6341318e-01   1.8068393e-01   1.9201906e-01   2.0937459e-01   2.6570768e-01   3.1318670e-01   2.3153509e-01   2.8816950e-01   3.7111119e-01   3.8302611e-01   4.2409379e-01   3.7787192e-01   3.3522007e-01   4.6049148e-01   4.0768661e-01   2.7994632e-01   4.2587356e-01   4.3725158e-01   5.1838351e-01   4.2398827e-01   3.5165145e-01   3.5484225e-01   3.7693674e-01   2.8507763e-01   4.1116385e-01   3.8251967e-01   2.8237869e-01   4.4319780e-01   4.6151259e-01   6.1937302e-01   7.0372827e-01   9.3037059e-01   1.1643901e+00   1.1758863e+00   1.3012435e+00   1.5957675e+00   1.7844234e+00   1.7908844e+00   1.7106920e+00   1.6985941e+00   1.5589452e+00   1.3676942e+00   1.2237560e+00   9.5100455e-01   6.1745581e-01   2.2432246e-01  -1.8565749e-03  -1.2858619e-01  -1.9396516e-01  -8.4248823e-03  -5.8990739e-02  -1.0641843e-01   4.9975619e-02  -1.0216298e-01  -2.6576279e-02  -4.6325257e-02  -1.2088930e-01  -1.0477954e-02  -7.9140053e-02  -1.0538850e-01  -6.3806108e-03   5.3028300e-02   1.9052557e-01   3.4287154e-01   8.6578374e-01   1.1419171e+00   1.3063473e+00   1.4653673e+00   1.3870172e+00   1.3206688e+00   8.8216926e-01   9.6623098e-01   1.0659013e+00   4.4012228e-01  -1.9802592e+00
   1.0000000e+00  -3.5941740e-02  -2.7819632e-01  -3.8375438e-01  -3.7272490e-01  -1.3322346e-01  -2.7698825e-01  -4.2173103e-01  -3.4688683e-01  -1.7848876e-01  -2.3167341e-01  -3.3658328e-01  -3.6185316e-01  -3.9472756e-01  -2.7869383e-01  -4.3282635e-01  -4.7154981e-01  -2.5778203e-01  -2.2121510e-01  -5.0988523e-01  -6.1322237e-01  -5.2728633e-01  -4.2310865e-01  -3.5329614e-01  -4.3583758e-01  -4.7465857e-01  -5.6081595e-01  -6.2984080e-01  -3.2000241e-01  -1.6477071e-01  -1.2716885e-01  -2.5424040e-01  -3.8167703e-01  -1.8103816e-01  -7.9146549e-02   5.5061941e-03   1.7496344e-01   5.6961658e-02   1.5747088e-01   1.9106629e-01   1.0366150e-01   8.1361279e-02  -4.3422405e-04   8.3364445e-02   2.6657818e-01   1.9222838e-01   6.8638075e-02  -3.9912439e-02  -1.0877671e-02   8.4594449e-02   1.1324985e-01   3.1539678e-01   4.8520299e-02  -5.7953596e-02   1.3753469e-01   2.8042693e-01   9.6707309e-02   1.6027691e-02   8.2502280e-02   2.5014234e-01   4.1530302e-01   5.1669519e-01   5.7008307e-01   5.2925349e-01   6.2179339e-01   6.5384684e-01   6.8988785e-01   6.6758986e-01   7.6422407e-01   7.5545274e-01   6.1065201e-01   5.3165018e-01   5.6035374e-01   4.8819073e-01   6.1981582e-01   6.8931228e-01   5.1892443e-01   5.0861831e-01   5.3729969e-01   8.3561964e-01   1.0504299e+00   1.0520813e+00   1.0422228e+00   1.3239600e+00   1.5725561e+00   1.8367010e+00   2.1411136e+00   2.0524633e+00   1.9747949e+00   1.9915372e+00   1.7877544e+00   1.3901971e+00   1.0999058e+00   8.2331555e-01   6.9379178e-01   3.7016199e-01   1.0351141e-01  -1.5145786e-01  -3.0922505e-01  -3.2556340e-01  -2.9672621e-01  -4.2837449e-01  -2.7819081e-01  -3.1271101e-01  -3.6018885e-01  -3.3416367e-01  -2.5912905e-01  -7.3196109e-02  -2.9171138e-01  -4.9868986e-01  -4.1435682e-01  -1.1853838e-01   3.3292736e-01   8.6438664e-01   1.1097002e+00   8.8892184e-01   9.3933787e-01   9.9555397e-01   8.0676060e-01   5.1315745e-01   1.0589958e-01   4.7615629e-01   6.8152015e-01  -1.6725760e-01  -1.6829375e+00  -2.7097641e+00  -3.4355172e+00  -4.2796184e+00  -4.2900157e+00  -3.6475984e+00  -2.2284106e+00  -1.6046026e+00  -1.4703591e+00  -6.9271005e-01  -4.7049683e-01  -4.5414559e-01  -3.4407644e-01  -4.1212822e-01  -4.1674938e-01  -2.4737942e-01  -3.4628536e-01
   1.0000000e+00  -1.3132285e+00  -1.9628833e+00  -8.4626258e-01  -1.4005536e+00  -1.3682153e+00  -1.6259806e+00  -1.3467619e+00  -9.7069563e-01  -2.9910008e-01  -1.5790980e-02   2.8759577e-01   4.4026139e-01   5.1403801e-01   8.0093535e-01   8.7091838e-01   9.2139713e-01   1.0110805e+00   1.0452318e+00   1.1832578e+00   1.2097477e+00   1.3116280e+00   1.3760637e+00   1.3939310e+00   1.3324992e+00   1.5412806e+00   1.5794174e+00   1.5161994e+00   1.5829409e+00   1.5380828e+00   1.6238002e+00   1.6252494e+00   1.5421308e+00   1.5419687e+00   1.5073045e+00   1.4092127e+00   1.2950179e+00   1.1165366e+00   1.0592253e+00   1.0624859e+00   9.3777282e-01   6.6971788e-01   5.0058299e-01   5.0105465e-01   4.7631491e-01   4.6703381e-01   4.6638023e-01   3.6759587e-01   4.0084873e-01   3.9112101e-01   4.8143856e-01   5.4599740e-01   4.5298527e-01   4.8543593e-01   5.0091323e-01   3.9955962e-01   4.0103803e-01   4.7223301e-01   4.2087129e-01   3.5209144e-01   4.0504492e-01   3.6221199e-01   1.9937785e-01   2.4458334e-01   1.2712121e-01   1.5831568e-01   1.7077731e-01   2.2411919e-01   1.4766888e-01   7.7334996e-02   8.3087180e-02   1.2218481e-01   1.5703363e-01   1.2523404e-01   1.1804396e-01   6.6736873e-02  -7.2671436e-04  -3.7090883e-03  -1.1378313e-01   3.6683100e-03  -1.6848820e-02   4.3134565e-02   7.6624084e-03  -2.3449371e-02  -4.3156341e-02  -7.3778098e-02  -1.1633432e-01  -1.0318980e-01  -1.1669772e-01  -1.6597833e-01  -2.3050498e-01  -2.7657196e-01  -1.9884823e-01  -2.5443444e-01  -2.8521273e-01  -2.3016571e-01  -1.9552775e-01  -2.9783595e-01  -3.1881543e-01  -3.5075548e-01  -3.7272823e-01  -3.6130256e-01  -4.1187502e-01  -3.5185960e-01  -3.6031775e-01  -3.7256816e-01  -2.9931491e-01  -1.9609028e-01  -7.6184845e-02   1.9939178e-01   4.5701588e-01   6.9059228e-01   9.5615584e-01   9.2102302e-01   8.5386530e-01   6.7936159e-01   3.4334548e-01   3.9061087e-02  -2.3579707e-01  -6.9348205e-01  -1.1577509e+00  -1.3786883e+00  -1.6035594e+00  -1.5251421e+00  -1.4711638e+00  -1.5116522e+00  -1.6084322e+00  -1.6471700e+00  -1.6966136e+00  -1.7331055e+00  -1.6869595e+00  -1.7418450e+00  -1.4790494e+00  -6.9129949e-01  -4.4632661e-01  -7.8760618e-01  -1.7799741e+00  -2.4583453e+00  -3.0575290e+00  -2.4051707e+00  -2.7488784e+00
   1.0000000e+00  -2.0956639e+00  -4.1820350e+00  -4.3009498e+00  -4.2473509e+00  -3.8246242e+00  -2.9645634e+00  -1.7487328e+00  -1.4492830e+00  -1.0171378e+00  -3.9008677e-01  -2.9072688e-01  -2.6052276e-01  -2.3750703e-01  -2.6549275e-01  -1.9828583e-01  -2.3660331e-01  -2.0368769e-01  -1.0487981e-01  -2.1819631e-01  -2.2008855e-01  -1.8128266e-01  -1.8361951e-01  -2.0982728e-01  -2.4887323e-01  -3.1902542e-01  -1.7285097e-01  -2.6864919e-01  -3.3467946e-01  -2.8681933e-01  -4.1692742e-01  -3.8194531e-01  -4.4086993e-01  -5.2672186e-01  -4.3093113e-01  -5.0947227e-01  -4.9597668e-01  -3.9524380e-01  -3.9171115e-01  -3.6536185e-01  -3.6099170e-01  -3.0909023e-01  -2.1331618e-01  -1.2583758e-01  -2.1390649e-02  -1.8562938e-04   1.5293745e-01   1.0494350e-01   1.4463593e-01   1.6495015e-01   2.4759814e-01   1.4809613e-01   1.6675634e-01   1.3713657e-01   1.3129427e-01   1.0536733e-01   1.1716509e-01   1.4491129e-01   2.2432627e-01   2.0799413e-01   1.8391872e-01   3.0754224e-01   2.1131498e-01   2.1174460e-01   2.4568629e-01   2.9402975e-01   2.7200059e-01   2.9116733e-01   4.1455202e-01   4.4032737e-01   5.0272370e-01   4.4864757e-01   5.0139391e-01   4.9333595e-01   4.6928612e-01   5.9297620e-01   4.3152913e-01   6.0919444e-01   6.2251750e-01   5.8681271e-01   5.3970837e-01   4.7911694e-01   4.4646713e-01   4.9923793e-01   4.9376010e-01   4.1344355e-01   4.1231733e-01   4.1506048e-01   2.9492111e-01   3.4250948e-01   4.0793198e-01   3.3023249e-01   4.6374836e-01   4.0314981e-01   4.2510081e-01   5.5648479e-01   7.0465059e-01   8.2816734e-01   1.0691053e+00   1.0935423e+00   1.3437518e+00   1.5543795e+00   1.8183417e+00   1.8572515e+00   1.8498370e+00   1.8316143e+00   1.5866426e+00   1.3741176e+00   1.1134232e+00   7.9445511e-01   4.7582202e-01   1.4329084e-01  -1.6554804e-01  -2.7541546e-01  -4.0622216e-01  -4.4700204e-01  -4.3605087e-01  -4.8267886e-01  -4.8197522e-01  -4.2068640e-01  -5.5994179e-01  -6.2854377e-01  -4.8475057e-01  -3.8145165e-01  -4.0206931e-01  -4.8160981e-01  -4.4844460e-01  -4.1002531e-01  -3.3670383e-01  -6.7116417e-02   3.8936092e-01   8.1561905e-01   8.5431636e-01   1.0248215e+00   1.1621182e+00   9.9027401e-01   7.1492711e-01   5.4892886e-01   8.2619628e-01   8.2778817e-01  -1.4804925e+00
   1.0000000e+00  -6.5713662e-01  -1.4969218e+00  -2.0119899e+00  -2.4230953e+00  -2.6757808e+00  -2.6018607e+00  -2.1598373e+00  -1.7090852e+00  -1.6886960e+00  -1.4958077e+00  -1.1259194e+00  -1.0565501e+00  -1.0455331e+00  -1.0517574e+00  -1.0651333e+00  -1.0484160e+00  -1.0139468e+00  -1.0755722e+00  -1.0589594e+00  -9.8712640e-01  -9.7901217e-01  -9.9743505e-01  -9.7482263e-01  -1.0195989e+00  -9.9205812e-01  -9.4525342e-01  -9.5425021e-01  -9.8097029e-01  -9.6693412e-01  -9.7539749e-01  -9.1961537e-01  -9.2278445e-01  -9.3548310e-01  -9.4447603e-01  -9.7372083e-01  -9.5864742e-01  -9.2900695e-01  -8.9290367e-01  -9.2300977e-01  -8.5828141e-01  -8.2267561e-01  -8.5735523e-01  -8.3722458e-01  -7.4599086e-01  -7.3071174e-01  -6.9663011e-01  -6.3155637e-01  -5.4986399e-01  -5.1378843e-01  -4.6025407e-01  -4.2979258e-01  -3.9054221e-01  -3.3958171e-01  -2.8790892e-01  -3.0171789e-01  -3.2181647e-01  -2.9499983e-01  -2.1417627e-01  -2.0649537e-01  -1.8435398e-01  -1.8402830e-01  -1.2946061e-01  -1.3105613e-01  -1.5901900e-01  -1.1915344e-01  -2.9199787e-02   2.2764199e-02   5.8657996e-02   2.9185737e-02   5.7545604e-02   7.6409260e-02   1.0167759e-01   1.7396602e-01   1.9479359e-01   2.1366527e-01   2.4949699e-01   2.5148255e-01   2.4204967e-01   3.0129119e-01   3.1519622e-01   2.9942738e-01   3.6026555e-01   3.7871864e-01   3.6281402e-01   4.0619360e-01   4.2138802e-01   4.0339707e-01   4.5184163e-01   4.5226997e-01   4.3814653e-01   4.7611158e-01   5.2982753e-01   4.7402428e-01   4.6334592e-01   4.9583032e-01   5.7881087e-01   5.7546171e-01   5.4800320e-01   6.6323708e-01   7.9411457e-01   8.5691622e-01   9.1773249e-01   1.1191012e+00   1.2563839e+00   1.3683750e+00   1.4669721e+00   1.5243136e+00   1.5556301e+00   1.4772998e+00   1.4991792e+00   1.3222470e+00   1.1898480e+00   1.0410602e+00   8.8800610e-01   7.9625852e-01   7.7664463e-01   8.0599559e-01   7.9361085e-01   7.9260365e-01   8.6883846e-01   8.3556101e-01   8.8324466e-01   9.1605192e-01   9.0682900e-01   9.2240290e-01   9.1472618e-01   9.5711102e-01   1.0120195e+00   1.0769930e+00   1.2008247e+00   1.5447187e+00   1.6901301e+00   1.6016862e+00   1.6080903e+00   1.4758119e+00   1.4250317e+00   1.3926676e+00   1.3749784e+00   1.5873080e+00   1.5575253e+00
   1.0000000e+00   1.0066612e+00  -7.1297710e-01  -2.1090848e+00  -3.2562893e+00  -4.0037859e+00  -3.3199764e+00  -2.2244663e+00  -1.8241457e+00  -1.6001011e+00  -5.5259014e-01  -3.7391030e-01  -4.4742468e-01  -3.4219461e-01  -4.0622256e-01  -4.1756929e-01  -4.6513571e-01  -4.1796292e-01  -4.0866813e-01  -4.3360333e-01  -5.0414263e-01  -4.4853792e-01  -4.9157178e-01  -5.3982270e-01  -5.1206043e-01  -6.1953756e-01  -6.5659449e-01  -6.8968956e-01  -7.0800830e-01  -8.3093297e-01  -8.9896340e-01  -1.0342897e+00  -1.1046903e+00  -1.1980250e+00  -1.2683603e+00  -1.2505573e+00  -1.2656655e+00  -1.3382759e+00  -1.2544975e+00  -1.2814043e+00  -1.3512200e+00  -1.2037743e+00  -1.1771272e+00  -9.6441222e-01  -7.8746019e-01  -7.5133941e-01  -6.1495838e-01  -4.2236376e-01  -3.5576970e-01  -3.6892632e-01  -1.8958694e-01  -8.7354970e-02  -1.0679930e-01  -2.4060782e-02   8.6023327e-02   9.6182184e-02   5.5849590e-02   1.1143703e-01   9.8288066e-02   1.2158504e-01   2.5785483e-01   2.7769920e-01   2.3024446e-01   3.2278443e-01   3.3279007e-01   3.7178320e-01   3.9660805e-01   4.8080728e-01   4.4951196e-01   5.9489562e-01   5.9832728e-01   6.3035930e-01   7.8072763e-01   7.1125791e-01   7.4629310e-01   7.2843059e-01   7.5243547e-01   8.3538614e-01   8.1141918e-01   7.5235914e-01   6.7520638e-01   7.0963329e-01   6.2715045e-01   6.2487548e-01   5.7856255e-01   4.8555178e-01   5.9108421e-01   4.4955476e-01   4.2294888e-01   4.8019564e-01   4.8082884e-01   5.4639171e-01   4.6715638e-01   5.0380302e-01   4.5716534e-01   4.0155583e-01   3.0595947e-01   3.8830788e-01   3.5841219e-01   3.7315242e-01   3.3895939e-01   5.1027136e-01   8.9478111e-01   1.0758612e+00   1.2532434e+00   1.2825729e+00   1.4882262e+00   1.8085845e+00   2.0609236e+00   2.1155949e+00   1.9716631e+00   1.6831640e+00   1.4041757e+00   1.2983275e+00   1.0039463e+00   4.9367566e-01  -8.0993839e-02  -2.4116658e-01  -2.3680335e-01  -2.0696075e-01  -3.0108013e-01  -1.9850304e-01  -1.5594015e-01  -2.4216883e-01  -2.7084712e-01  -2.3878201e-01  -1.7448092e-01  -1.7427278e-01  -1.9337637e-01  -2.6325947e-01  -1.8303922e-01  -5.1285894e-02   8.8748039e-02   7.1794064e-01   7.7113119e-01   9.2275470e-01   1.6828384e+00   1.8072319e+00   1.6421347e+00   7.7740280e-01   1.1701989e+00
   1.0000000e+00   3.0348816e-01  -1.7968885e+00  -3.5967640e+00  -4.6180827e+00  -4.1050392e+00  -3.1325418e+00  -2.0192505e+00  -1.6992669e+00  -1.3280904e+00  -5.0738745e-01  -2.3311003e-01  -2.4053034e-01  -2.0217516e-01  -2.2366625e-01  -2.0151393e-01  -2.2774311e-01  -1.9379435e-01  -2.3683051e-01  -3.5325727e-01  -3.2973858e-01  -3.4331550e-01  -3.1320709e-01  -4.1662268e-01  -4.9438313e-01  -4.7179546e-01  -5.2165392e-01  -6.2201846e-01  -6.2049198e-01  -6.6479543e-01  -6.7155879e-01  -7.9031272e-01  -8.3646439e-01  -7.9337559e-01  -9.0850577e-01  -8.9887636e-01  -1.0301765e+00  -9.7946788e-01  -9.9023204e-01  -8.2533645e-01  -7.6894357e-01  -7.8465850e-01  -7.6817829e-01  -5.8584428e-01  -5.0495369e-01  -3.8683873e-01  -2.2703286e-01  -1.7094260e-01  -1.9454888e-01  -1.3051014e-01  -9.1583122e-02  -7.3212875e-02  -8.3431312e-02  -2.7792060e-02  -2.1481551e-02  -6.2410324e-02   5.9280957e-02   2.7505092e-02  -2.3590030e-02  -5.1860983e-02  -3.6831308e-02   8.0716952e-02   2.9480616e-02   4.0966475e-02   1.6436447e-01   3.1342633e-02   1.8373146e-01   1.8402676e-01   2.7952368e-01   3.4521901e-01   3.0478437e-01   4.4162112e-01   5.0705826e-01   5.3495615e-01   5.3556811e-01   5.8960925e-01   6.0132080e-01   6.3313986e-01   6.0217601e-01   6.1877195e-01   6.0024180e-01   6.2314344e-01   5.5908982e-01   5.5388581e-01   5.1728932e-01   4.8322545e-01   5.0214778e-01   3.2438661e-01   3.4439911e-01   2.8434578e-01   3.5189409e-01   3.4036264e-01   3.2246899e-01   3.2694402e-01   2.8283712e-01   3.0063829e-01   2.0407909e-01   2.6974157e-01   4.9914561e-01   5.2550642e-01   7.6900806e-01   1.0248554e+00   1.1620390e+00   1.2208872e+00   1.4091727e+00   1.6314473e+00   1.7162755e+00   1.6502655e+00   1.4860197e+00   1.1841308e+00   1.0239299e+00   8.5183116e-01   7.8951446e-01   5.3565185e-01   1.2988320e-01  -5.2806075e-02  -1.3249154e-01  -2.2060660e-01  -2.2989963e-01  -2.0312591e-01  -2.0478751e-01  -1.5267939e-01  -2.6651818e-01  -1.9302679e-01  -2.3096121e-01  -1.4190882e-01  -1.5456918e-01  -1.9960813e-01  -1.2605449e-01  -9.3395315e-02   2.0115343e-01   8.0744803e-01   1.4676772e+00   1.6309924e+00   2.0712313e+00   2.4693983e+00   2.1469710e+00   1.2838119e+00   6.7762520e-01   1.0289664e+00   3.5073325e-01
   1.0000000e+00  -8.3354058e-01  -1.4633151e+00  -2.2679727e+00  -2.8930469e+00  -3.4220443e+00  -3.9661888e+00  -3.3819660e+00  -2.0106879e+00  -1.6993306e+00  -1.4943844e+00  -5.8348293e-01  -3.7436280e-01  -5.0368378e-01  -6.2127772e-01  -7.2646625e-02   4.6094619e-02  -5.2563696e-01  -6.9091485e-01  -6.5256625e-01  -4.6965778e-01  -3.4262635e-01  -3.7346761e-01  -4.5920071e-01  -7.6808763e-01  -6.5399231e-01  -6.2105978e-01  -6.8486953e-01  -4.8202934e-01  -4.6540218e-01  -5.9963525e-01  -3.8478878e-01  -2.5096952e-01  -3.3978651e-01  -5.2715248e-01  -8.1115784e-01  -2.9373431e-01  -7.2122581e-02  -3.3570089e-01  -5.1176596e-01  -4.6750944e-01  -2.9016733e-02  -3.6813391e-01  -5.3274146e-01  -4.8476262e-01  -3.2525817e-01  -3.4540493e-01  -3.8626449e-01  -3.7913480e-02  -1.1792468e-01  -3.1665838e-01  -3.4177542e-01  -5.0585712e-02   9.0646994e-02  -2.1408437e-02   4.5424437e-02  -4.0065180e-01  -5.3662537e-01  -2.2963693e-01  -2.6915502e-01  -1.7794996e-01  -1.1472405e-01  -1.4679337e-01  -1.8661282e-01  -1.9648172e-01  -1.2574968e-01  -3.5821610e-02   1.0879457e-01   1.3489632e-02  -6.5900179e-03   6.6912545e-02   2.0112873e-01   3.3890247e-01   3.3957814e-01   2.2046921e-01   2.6164641e-01   3.1003811e-01   4.5576245e-01   3.6034813e-01   5.2577722e-01   5.3704402e-01   5.1552617e-01   4.4671591e-01   4.6038645e-01   3.6591022e-01   3.5961370e-01   4.9323751e-01   4.6610206e-01   4.4852941e-01   4.6070048e-01   4.7452859e-01   3.9577957e-01   4.5112120e-01   4.5585988e-01   3.9293569e-01   3.5047972e-01   4.5890525e-01   4.0050876e-01   4.6103572e-01   6.1840674e-01   8.4584295e-01   8.1393201e-01   1.1035641e+00   1.4204946e+00   1.5633771e+00   1.9818238e+00   2.1580291e+00   2.2622342e+00   2.2697721e+00   2.1454828e+00   1.7636766e+00   1.6027409e+00   1.3190525e+00   1.0151368e+00   6.4955902e-01   3.5753240e-01   2.1170762e-01   1.2964191e-01   1.5773882e-01   2.1416123e-01   1.6283604e-01   3.1052072e-01   5.0732170e-01   5.1418476e-01   5.5509680e-01   5.3032927e-01   5.8729527e-01   4.8679646e-01   4.6220497e-01   5.3688887e-01   6.1901485e-01   9.7590850e-01   1.8066892e+00   2.0838682e+00   1.4036605e+00   5.0692178e-01  -6.2905308e-01  -1.3482969e+00  -1.5711592e+00  -1.3197323e+00  -4.0873099e-01
   1.0000000e+00  -8.6918200e-01  -2.2065865e+00  -2.9895709e+00  -3.5100354e+00  -3.2893642e+00  -3.0073148e+00  -2.2406109e+00  -1.7115846e+00  -1.8055500e+00  -1.4183316e+00  -9.0173395e-01  -7.6825269e-01  -8.7575673e-01  -9.4860332e-01  -7.7489531e-01  -8.2088242e-01  -9.6868294e-01  -8.3526283e-01  -8.6383518e-01  -8.7544557e-01  -7.9902868e-01  -8.0644803e-01  -8.1050205e-01  -8.3383589e-01  -7.5704835e-01  -7.3629747e-01  -8.0626221e-01  -8.8313281e-01  -9.1346623e-01  -7.7745338e-01  -8.5249514e-01  -9.4051653e-01  -9.3280471e-01  -8.8050631e-01  -7.7325364e-01  -9.5864382e-01  -9.1953766e-01  -7.9980003e-01  -8.3439040e-01  -8.5471294e-01  -8.5583099e-01  -6.7216428e-01  -6.6109227e-01  -5.0697806e-01  -3.5539539e-01  -4.2177061e-01  -5.3625163e-01  -3.2596317e-01  -3.1717007e-01  -3.7730566e-01  -3.2989117e-01  -1.7649360e-01  -1.9570940e-01  -1.6040570e-01  -1.4924584e-01  -1.2409144e-01  -2.8446905e-02   2.6180075e-02  -1.5007249e-01  -1.5393779e-01  -1.4604047e-01  -2.1657463e-02  -1.4306005e-02   3.9257439e-02   2.0493539e-01   1.1602464e-01   8.4304107e-02   1.1123894e-01   2.1272998e-01   2.6163798e-01   1.3536919e-01   3.0074526e-01   4.5143944e-01   4.0357213e-01   4.8383784e-01   5.1391024e-01   5.6863865e-01   5.3702278e-01   4.1885194e-01   3.7096142e-01   3.7716016e-01   4.7553953e-01   4.9642491e-01   4.7273510e-01   4.4678285e-01   4.6839683e-01   5.0782288e-01   5.3981375e-01   4.5266186e-01   5.3897268e-01   3.9855023e-01   4.6245577e-01   5.1686294e-01   4.6859871e-01   5.5577636e-01   6.2973144e-01   7.7314843e-01   8.8806691e-01   8.0317658e-01   7.6936946e-01   1.0906305e+00   1.1969699e+00   1.3296435e+00   1.5050152e+00   1.5628844e+00   1.5760815e+00   1.4032697e+00   1.2858207e+00   1.1047245e+00   1.1219680e+00   9.5280533e-01   7.8320928e-01   6.0946100e-01   3.4251807e-01   4.0503538e-01   4.5644674e-01   5.0191352e-01   5.2328074e-01   4.3453203e-01   4.3572867e-01   5.8881715e-01   5.5893894e-01   3.6612367e-01   4.1786921e-01   6.2788765e-01   6.8541861e-01   5.9936648e-01   6.1441463e-01   7.2861990e-01   8.7216645e-01   1.1669045e+00   1.2969144e+00   1.2885578e+00   1.5334311e+00   1.5094861e+00   1.3902125e+00   1.3655023e+00   1.3225038e+00   1.8521256e+00   1.5419344e+00
   1.0000000e+00   1.9403860e-01  -2.6269766e+00  -4.0946853e+00  -4.5305220e+00  -4.1227825e+00  -3.0820611e+00  -1.9064297e+00  -1.6267002e+00  -9.8881683e-01  -2.6252840e-01  -3.5485818e-01  -2.4360805e-01  -2.1174603e-01  -2.6478906e-01  -2.3264451e-01  -2.4389732e-01  -3.0767997e-01  -2.8962471e-01  -2.6859114e-01  -2.7667459e-01  -3.7508493e-01  -3.5752287e-01  -4.8699500e-01  -5.5767708e-01  -4.4317260e-01  -5.4293508e-01  -5.9243604e-01  -6.0029070e-01  -6.2743828e-01  -7.4285958e-01  -6.6799109e-01  -8.5394338e-01  -8.1640358e-01  -9.2950293e-01  -9.2976653e-01  -9.3841109e-01  -9.3204217e-01  -9.4117377e-01  -9.4518245e-01  -8.7573421e-01  -7.4543810e-01  -7.2659819e-01  -6.6793360e-01  -3.9140323e-01  -3.5894004e-01  -3.6369057e-01  -2.4877757e-01  -2.4437095e-01  -1.7974104e-01  -1.3775457e-01   2.4926969e-02  -1.9682223e-02   6.5831627e-02   1.3226511e-01   1.0921530e-01   1.2517479e-01   2.7656715e-01   2.1831138e-01   2.1519164e-01   2.7155052e-01   3.2662434e-01   2.5356447e-01   2.8211582e-01   4.9307158e-01   3.8812612e-01   4.2776252e-01   5.2177550e-01   5.8966930e-01   6.1685294e-01   6.8299810e-01   7.0978146e-01   7.4074667e-01   6.4651648e-01   6.9844508e-01   6.3012831e-01   7.6637419e-01   7.2844550e-01   6.6134137e-01   7.0455108e-01   5.2651392e-01   6.3808952e-01   6.4315976e-01   4.9377402e-01   5.5167319e-01   4.6524968e-01   5.5870597e-01   4.4034169e-01   3.8693191e-01   3.8340207e-01   4.1095372e-01   3.8577956e-01   3.7742051e-01   4.0261455e-01   3.2648720e-01   3.6169450e-01   3.6688041e-01   3.7402358e-01   4.4819118e-01   5.9137108e-01   8.8779852e-01   1.2309699e+00   1.3120343e+00   1.4284373e+00   1.5764141e+00   1.7901007e+00   1.6576839e+00   1.6500184e+00   1.6249761e+00   1.3313129e+00   1.2139498e+00   9.6173200e-01   6.7800119e-01   3.1326698e-01  -6.3885789e-02  -1.9038678e-01  -2.7232209e-01  -2.3693128e-01  -2.2902931e-01  -2.4000958e-01  -3.3611395e-01  -2.1046990e-01  -1.8256512e-01  -1.1599984e-01  -1.7489923e-01  -1.7892008e-01  -1.0488017e-01  -9.0408797e-02  -1.2083461e-01  -5.1125987e-02   1.4008398e-01   8.4172399e-01   1.2706680e+00   1.1135843e+00   1.1221841e+00   8.8618453e-01   7.2436759e-01   7.0664178e-01   8.6761242e-01   1.2951468e+00  -1.2848233e+00
   1.0000000e+00   1.3819940e+00   3.6621607e-01  -2.4019983e+00  -4.2293972e+00  -4.9372699e+00  -5.0561839e+00  -3.8526331e+00  -2.1658699e+00  -1.9756248e+00  -1.1081356e+00  -1.1463923e-01  -1.9791556e-01  -2.4602237e-01  -1.0414129e-01  -4.6410796e-02  -6.7892614e-02   2.3488257e-01   3.2179348e-01   2.7563529e-01   2.1115321e-01   2.5558825e-01   2.2596270e-01   3.3420470e-01   2.6990682e-01   3.4460541e-01   2.8124644e-01   5.5479254e-01   4.9993220e-01   3.2474916e-01   1.9225441e-01   2.7476780e-01   1.6306141e-01   7.6353115e-02   1.2241184e-01  -1.4146200e-01  -2.1037408e-01  -1.4104558e-02   6.1627422e-02  -1.1164908e-01  -7.2694063e-02  -5.5701079e-02   6.6338636e-02   6.5868034e-02   5.7605889e-02   2.3233759e-01   2.6457152e-01   4.6664347e-01   5.2532594e-01   6.3407284e-01   4.3317240e-01   3.9840851e-01   5.0080440e-01   5.5525392e-01   6.9831644e-01   5.7229014e-01   5.2401516e-01   6.4888858e-01   5.9746680e-01   5.6286817e-01   5.8463620e-01   5.4415541e-01   4.9085373e-01   5.7391471e-01   5.1514860e-01   4.8788316e-01   5.9762703e-01   6.4041520e-01   7.5357241e-01   6.5541997e-01   6.5509987e-01   7.4535054e-01   7.4074953e-01   6.5820240e-01   7.3741260e-01   5.9984443e-01   6.5270407e-01   7.3390524e-01   6.1080117e-01   5.7532655e-01   6.5332316e-01   6.4807470e-01   4.5093375e-01   4.8712753e-01   3.7887817e-01   4.1127997e-01   4.0842992e-01   2.2206699e-01   1.6496120e-01   1.3895889e-01   2.2080683e-01   1.3376541e-01   1.3094940e-01   6.1104875e-02   2.7411738e-02   1.3073412e-03   7.5516316e-02  -1.4458395e-02   2.5507035e-02   4.2833967e-02   1.3440725e-01   4.1720512e-02  -5.2771846e-02  -5.3965983e-02   1.1094172e-01   2.6175074e-01   3.9416452e-01   5.2321069e-01   8.4624645e-01   1.0149270e+00   8.8103388e-01   6.2336098e-01   3.4329358e-01   1.2654862e-01   3.1103658e-02   1.2691427e-01  -2.3384617e-02  -3.7095866e-01  -7.1593091e-01  -8.7829665e-01  -8.8372397e-01  -1.0540557e+00  -1.0780056e+00  -1.0702878e+00  -1.0086882e+00  -1.1277357e+00  -1.0584954e+00  -8.9273247e-01  -8.3903891e-01  -9.0436231e-01  -1.3081290e+00  -1.1405188e+00  -5.4974974e-01   2.8551732e-01   6.0328977e-01   9.4350670e-01   1.1229611e+00   1.2020018e+00   6.2389127e-01  -1.5810707e-01   2.3907783e-01
   1.0000000e+00   8.6018150e-01  -1.4186240e-01  -1.9673779e+00  -2.9888945e+00  -3.8054927e+00  -3.5349361e+00  -2.5727398e+00  -1.9410837e+00  -1.5679289e+00  -6.6660690e-01  -3.9057052e-01  -4.4048619e-01  -3.4772724e-01  -3.3634353e-01  -3.5092696e-01  -4.1944037e-01  -4.2538555e-01  -3.9842870e-01  -4.4930303e-01  -4.9409829e-01  -4.6315078e-01  -5.3909561e-01  -6.6490158e-01  -6.6983643e-01  -5.9577177e-01  -7.0255449e-01  -8.4050179e-01  -8.5796611e-01  -9.4829584e-01  -8.7069314e-01  -1.0515735e+00  -1.1141012e+00  -1.0693649e+00  -1.2264251e+00  -1.1925338e+00  -1.2103399e+00  -1.3302845e+00  -1.2821574e+00  -1.2894278e+00  -1.1037867e+00  -1.0540334e+00  -1.0017427e+00  -1.0318155e+00  -8.6151372e-01  -7.0442083e-01  -6.7167205e-01  -5.2076259e-01  -4.7866860e-01  -4.2987690e-01  -2.7926442e-01  -2.6086462e-01  -3.3511736e-01  -1.6861860e-01  -2.0816881e-01  -1.9304768e-01  -1.8248668e-01  -1.3485653e-01  -6.7825746e-02  -2.8167989e-02   4.1396328e-02   4.6458175e-02   9.4236883e-02   9.0328862e-02   2.2296357e-01   3.7001506e-01   4.3797713e-01   3.9323080e-01   3.4172463e-01   4.5222241e-01   5.0342936e-01   5.2959964e-01   5.7640402e-01   6.3839914e-01   6.5897446e-01   5.1787544e-01   5.5623293e-01   5.1095482e-01   5.9077971e-01   5.5924163e-01   5.4986821e-01   4.8123270e-01   4.7062567e-01   4.4019704e-01   3.8979520e-01   3.6795257e-01   3.7277516e-01   3.3109220e-01   3.8640313e-01   3.4362028e-01   3.0251866e-01   4.2750609e-01   3.3790794e-01   3.9377182e-01   3.1425529e-01   4.6301850e-01   3.5810994e-01   3.0632635e-01   4.2741326e-01   3.6588975e-01   4.5020852e-01   4.7055251e-01   5.5274383e-01   9.2625158e-01   1.1423205e+00   1.2735146e+00   1.4464056e+00   1.5736994e+00   1.9466014e+00   2.2666614e+00   2.1760928e+00   2.0371013e+00   1.8584269e+00   1.7444298e+00   1.5470201e+00   1.2637535e+00   7.4392715e-01   1.9274446e-01  -5.1230624e-03  -4.5447824e-03  -4.4780955e-03  -1.3646034e-01   4.1174638e-02  -1.1509561e-02   5.6577011e-02   4.6860696e-02   4.4559340e-02   8.1304670e-02   1.5736356e-02   1.1642984e-01   1.2444127e-01   1.7417640e-01   3.8120375e-01   1.0142940e+00   1.5735464e+00   1.2640400e+00   1.4922338e+00   1.6145787e+00   1.3942715e+00   5.9271243e-01   5.7393333e-01
   1.0000000e+00  -5.0162131e-01  -1.0885841e+00  -1.9397493e+00  -3.8884577e+00  -3.9511298e+00  -3.7056505e+00  -2.8737203e+00  -1.9517084e+00  -1.1508020e+00  -8.8886891e-01  -4.5111150e-01  -1.2966496e-01  -6.2786364e-02  -1.5013052e-01  -3.0613358e-01  -6.0497228e-01  -7.8008477e-01  -6.8535122e-01  -6.4817681e-01  -6.4254805e-01  -5.6671865e-01  -4.9930340e-01  -4.5560725e-01  -4.9735603e-01  -4.7840270e-01  -4.3096976e-01  -3.4893201e-01  -3.8120151e-01  -3.4435793e-01  -2.8939968e-01  -3.5077581e-01  -3.4159018e-01  -3.5891507e-01  -3.5520397e-01  -4.2572500e-01  -3.9905546e-01  -4.5446879e-01  -4.3383121e-01  -4.9751684e-01  -5.9484332e-01  -6.0672001e-01  -6.1033218e-01  -5.9790306e-01  -5.9179400e-01  -5.5788580e-01  -5.2713078e-01  -5.4754834e-01  -4.7495141e-01  -4.1804966e-01  -3.7977675e-01  -3.3453388e-01  -3.0220087e-01  -2.9337014e-01  -3.3207313e-01  -2.7696819e-01  -2.6287147e-01  -2.5468554e-01  -2.7884700e-01  -2.4986102e-01  -3.2466922e-01  -3.0076046e-01  -3.7536839e-01  -2.8638718e-01  -3.0998513e-01  -3.2541378e-01  -2.9184997e-01  -2.6465758e-01  -2.7092280e-01  -2.3601605e-01  -2.2861508e-01  -2.2545850e-01  -2.0612425e-01  -2.2388702e-01  -2.1851504e-01  -1.4480835e-01  -1.1981557e-01  -1.4737146e-01  -3.7944370e-02  -8.5062979e-02  -4.6366626e-02  -3.3447392e-02  -4.8851905e-03   1.4000756e-02   2.6848102e-02   5.3281903e-02   6.2308393e-02   7.2059595e-02   1.0268872e-01   1.3076670e-01   1.4254294e-01   2.1226921e-01   2.3912392e-01   2.4077240e-01   2.5707283e-01   3.0228775e-01   2.9489505e-01   2.3629385e-01   3.1484162e-01   3.9681995e-01   4.0840375e-01   4.6335550e-01   4.5886471e-01   5.2610784e-01   5.4410442e-01   5.3603264e-01   5.5624740e-01   6.3702060e-01   6.7599322e-01   7.6511945e-01   9.7403570e-01   1.1480812e+00   1.3256004e+00   1.5865326e+00   1.7036074e+00   1.7635084e+00   1.7330211e+00   1.5713397e+00   1.4124095e+00   1.2507314e+00   9.9159144e-01   6.4598334e-01   5.4969720e-01   5.4583024e-01   6.2844716e-01   6.5994471e-01   6.4974171e-01   6.3196901e-01   6.7307441e-01   6.5684723e-01   7.0476365e-01   7.7684570e-01   8.2811562e-01   1.1967957e+00   1.4450747e+00   1.5050330e+00   1.7656167e+00   2.0334675e+00   2.0392521e+00   2.5894742e+00   2.8547070e+00
   1.0000000e+00  -5.3334196e-01  -1.8556681e+00  -2.2140382e+00  -3.1334115e+00  -3.4171372e+00  -3.0604469e+00  -2.2562981e+00  -1.7656979e+00  -1.6222889e+00  -1.1547278e+00  -8.6777128e-01  -9.0647173e-01  -8.7130542e-01  -8.7435826e-01  -8.8158744e-01  -9.0314360e-01  -8.6607165e-01  -8.6865471e-01  -8.4634872e-01  -8.4449092e-01  -8.5347664e-01  -8.6195995e-01  -8.0943786e-01  -8.4169649e-01  -8.7337192e-01  -8.8915814e-01  -9.0897358e-01  -8.6972108e-01  -8.8412267e-01  -9.0523014e-01  -9.3980093e-01  -9.5116533e-01  -9.6750259e-01  -9.9250209e-01  -1.0005500e+00  -9.5494752e-01  -9.4863479e-01  -9.0411414e-01  -8.9658748e-01  -8.1267242e-01  -7.8924399e-01  -7.1010155e-01  -6.6955258e-01  -6.1376458e-01  -5.9935909e-01  -5.1718842e-01  -4.5020178e-01  -3.9521824e-01  -3.8044680e-01  -3.9336749e-01  -3.5022284e-01  -3.4968190e-01  -3.0588408e-01  -2.8722073e-01  -2.5920436e-01  -2.8317265e-01  -2.6636688e-01  -2.6271382e-01  -1.6842277e-01  -1.9469278e-01  -1.2977245e-01  -1.2958657e-01  -1.0498221e-01  -6.4817854e-02  -5.3427639e-02  -1.3164421e-02   5.0629092e-02   7.7997132e-02   1.2776021e-01   1.6521717e-01   1.9037757e-01   2.2530202e-01   2.4942965e-01   3.1732883e-01   3.7778205e-01   3.8997654e-01   3.9844172e-01   4.1033347e-01   4.1015456e-01   4.3594136e-01   3.8914246e-01   4.2578306e-01   4.0887891e-01   4.3909803e-01   4.1708778e-01   4.4516130e-01   3.8428400e-01   4.5751283e-01   4.5442310e-01   4.5197146e-01   4.5223411e-01   4.7006201e-01   4.4817616e-01   4.9418289e-01   5.0964656e-01   5.1767450e-01   6.7688972e-01   7.8403996e-01   8.7424459e-01   9.4565750e-01   1.0248959e+00   1.0867153e+00   1.2527737e+00   1.3675454e+00   1.3227666e+00   1.3262180e+00   1.2184425e+00   1.1167806e+00   1.0481063e+00   9.3974315e-01   8.7787588e-01   8.1094052e-01   6.4422778e-01   6.0055214e-01   6.0878534e-01   5.9690879e-01   6.2106176e-01   6.3352473e-01   6.8134089e-01   6.4581241e-01   6.7874564e-01   6.7005885e-01   7.4092042e-01   7.8719304e-01   7.3983483e-01   7.9384607e-01   8.2002298e-01   9.1486825e-01   1.1019108e+00   1.4095197e+00   1.7047704e+00   1.7577696e+00   2.0140076e+00   2.0983021e+00   1.9152334e+00   1.5826766e+00   1.3321916e+00   1.2746631e+00   1.1994292e+00   3.1686028e-01
   1.0000000e+00   8.5178389e-01  -1.4862776e+00  -3.9043667e+00  -4.9416250e+00  -4.2823360e+00  -3.0970639e+00  -1.9312018e+00  -1.5690898e+00  -1.0521301e+00  -1.0655202e-01  -6.6951085e-02  -1.1277209e-01  -5.8698588e-02  -4.6265399e-02  -1.3378857e-01  -1.7651719e-01  -1.1162334e-01  -1.3643747e-01  -1.1581017e-01  -2.1304228e-01  -2.0557665e-01  -2.9667035e-01  -3.0835711e-01  -4.5523841e-01  -5.0014308e-01  -4.5278289e-01  -5.7312768e-01  -7.0275134e-01  -6.4572119e-01  -6.9647047e-01  -7.8108314e-01  -8.9182715e-01  -9.2071644e-01  -9.1456165e-01  -1.0263685e+00  -1.0026588e+00  -9.7886671e-01  -9.0476753e-01  -6.9501227e-01  -6.8493161e-01  -5.1978124e-01  -4.5650388e-01  -3.1031004e-01  -2.6626752e-01  -1.0157425e-01   3.1052349e-02   3.5526915e-03   4.0426343e-02   6.2550591e-02   6.9680647e-02   2.2040444e-01   1.1792035e-01   1.3015790e-01   2.4675551e-01   2.0826631e-01   2.5281167e-01   2.9164016e-01   4.4066717e-01   2.6958432e-01   4.4339350e-01   4.1274214e-01   3.6475173e-01   4.6262625e-01   3.5237183e-01   5.5308955e-01   5.9358927e-01   6.1458859e-01   5.7977518e-01   6.6915544e-01   7.1567842e-01   7.0625094e-01   7.7333099e-01   7.2941978e-01   7.7701225e-01   7.0129533e-01   6.3203392e-01   6.0940389e-01   5.7457027e-01   6.4886321e-01   5.4822911e-01   4.3883948e-01   4.7639184e-01   4.3590141e-01   4.5862609e-01   3.2201849e-01   2.9927435e-01   2.5183042e-01   3.1820087e-01   2.4817357e-01   2.3915038e-01   3.4582150e-01   1.7787965e-01   1.6033654e-01   1.6501717e-01   1.9062999e-01   2.6687555e-01   3.2833787e-01   4.7325043e-01   6.5287986e-01   9.3563338e-01   1.0859162e+00   1.2350642e+00   1.4411399e+00   1.6680814e+00   1.7529161e+00   1.7363414e+00   1.5661017e+00   1.2613804e+00   9.7630028e-01   6.8142713e-01   5.1849585e-01   1.6488510e-01  -1.7602166e-01  -4.9025698e-01  -5.4465695e-01  -5.3981323e-01  -5.8155781e-01  -6.6257803e-01  -6.2285610e-01  -5.8954734e-01  -7.3232138e-01  -6.0769471e-01  -6.7342333e-01  -5.9210110e-01  -5.9931590e-01  -5.3252789e-01  -5.3016308e-01  -4.1404642e-01  -2.2510324e-01   3.2666054e-01   1.0290628e+00   8.5763066e-01   8.6628606e-01   1.1244967e+00   1.1699139e+00   9.6957654e-01   1.1287146e+00   1.7244534e+00   1.7819046e+00  -2.6400714e-03
   1.0000000e+00   4.0506333e-01  -1.4921667e+00  -3.0436824e+00  -4.5457704e+00  -4.3606358e+00  -3.4471162e+00  -2.3130153e+00  -1.7258490e+00  -1.5285543e+00  -6.3867048e-01  -3.7682493e-01  -4.8127970e-01  -4.6501338e-01  -3.1573149e-01  -3.9031783e-01  -4.1702923e-01  -4.2017034e-01  -3.6281333e-01  -2.8319042e-01  -3.7695776e-01  -4.2788008e-01  -3.9653881e-01  -4.3802676e-01  -5.2365350e-01  -4.3437812e-01  -5.3058279e-01  -7.4204998e-01  -6.5196743e-01  -6.1446132e-01  -5.5330677e-01  -7.6789682e-01  -8.9266173e-01  -8.0207672e-01  -8.8284909e-01  -8.6572266e-01  -9.2887897e-01  -9.3332585e-01  -8.8958386e-01  -9.0517750e-01  -8.4011356e-01  -8.0170025e-01  -6.3403370e-01  -4.0185474e-01  -3.1075993e-01  -2.6544362e-01  -3.2603611e-01  -1.9704289e-01  -1.2122313e-01  -8.8212565e-02   1.3234359e-01   8.0903261e-02   3.0939159e-02  -1.7912422e-02   1.6252747e-01   1.4374555e-01   7.8192161e-02   2.8211908e-01   1.8986663e-01   2.0951262e-01   3.2222801e-01   1.9576249e-01   3.1361221e-01   3.6743274e-01   6.0872191e-01   3.2883373e-01   3.8023075e-01   4.1826190e-01   4.4467001e-01   5.4531354e-01   5.6324579e-01   7.8804544e-01   7.6666078e-01   6.3091957e-01   5.7737293e-01   5.3479019e-01   5.4096915e-01   5.9171874e-01   6.3193366e-01   5.9225801e-01   4.4272851e-01   4.4440055e-01   4.2399869e-01   4.0344090e-01   4.0735497e-01   5.2197825e-01   3.5379044e-01   4.3887195e-01   3.1929082e-01   4.7420731e-01   4.2456179e-01   3.3872973e-01   3.0298639e-01   3.7843243e-01   3.4534213e-01   3.3041978e-01   2.8995686e-01   4.8116331e-01   4.7970092e-01   7.3738422e-01   9.9083551e-01   1.0648768e+00   1.1584420e+00   1.4502186e+00   1.7339622e+00   2.0100259e+00   1.9369910e+00   1.8805792e+00   1.8311168e+00   1.5793829e+00   1.2725002e+00   1.1854633e+00   8.1886409e-01   3.0871899e-01  -8.7379068e-02  -2.6093959e-01  -3.7573700e-01  -3.7160575e-01  -2.5218158e-01  -3.2608850e-01  -4.0222132e-01  -3.5931581e-01  -2.5798971e-01  -2.8560711e-01  -5.0899640e-01  -3.0032452e-01  -3.5951965e-01  -3.3406031e-01  -2.3290988e-01  -1.3429671e-01   1.3987637e-01   7.9277919e-01   1.4404714e+00   1.3082322e+00   1.2924506e+00   1.2855227e+00   8.5574492e-01   4.6895266e-01   2.0058962e-01   9.7615222e-01   8.3962996e-01
   1.0000000e+00  -2.3427143e+00  -3.6641543e+00  -3.6197798e+00  -3.6053822e+00  -3.5874414e+00  -3.4780741e+00  -2.8876227e+00  -1.9336296e+00  -1.4436612e+00  -1.3760427e+00  -9.3932953e-01  -6.4469169e-01  -5.2994914e-01  -5.5175233e-01  -5.2225153e-01  -4.9312276e-01  -5.8891072e-01  -4.6744944e-01  -4.0097504e-01  -4.3154625e-01  -4.7019792e-01  -4.4469417e-01  -4.3706352e-01  -4.6567559e-01  -4.9131682e-01  -5.3255503e-01  -4.3212351e-01  -4.3301835e-01  -3.5706302e-01  -2.2933707e-01  -2.3880919e-01  -3.0291263e-01  -3.4617799e-01  -3.0810945e-01  -1.4781316e-01  -1.2615836e-01  -1.7098970e-01  -1.4970707e-01  -1.5079496e-01  -6.8106792e-02   2.4838630e-02   2.0394965e-01   1.4813358e-01   1.2481306e-01   2.6787581e-01   4.4064442e-01   5.0966303e-01   6.1148242e-01   6.4740799e-01   6.1643679e-01   6.2168058e-01   6.5723424e-01   5.8307162e-01   4.6145352e-01   4.2835492e-01   4.6810517e-01   2.9231921e-01   3.0691690e-01   3.9354646e-01   4.0143571e-01   4.4895698e-01   4.1275353e-01   3.2223420e-01   4.4566001e-01   4.1657068e-01   3.7847671e-01   3.4974744e-01   3.5908874e-01   3.1404723e-01   2.6715792e-01   3.5282133e-01   3.4153870e-01   2.9689821e-01   2.7028489e-01   2.5248543e-01   3.6678229e-01   4.2709375e-01   4.5055420e-01   3.8970991e-01   3.2743946e-01   3.1133556e-01   3.0444629e-01   1.0312793e-01  -5.0452612e-02   2.7363097e-01   2.3899661e-01   2.4898403e-01   2.1318320e-01   4.0160777e-01   6.6426925e-01   7.2049625e-01   7.9541362e-01   8.3257584e-01   9.7736401e-01   1.1330293e+00   1.3352612e+00   1.4912076e+00   1.5148760e+00   1.7366149e+00   1.9048774e+00   1.9426724e+00   1.9685609e+00   1.6713436e+00   1.4398710e+00   1.3279640e+00   1.1637085e+00   1.1141800e+00   9.3912260e-01   7.0883585e-01   4.0956164e-01   2.7778204e-01   1.3470889e-01   6.5744780e-02  -1.3889860e-02  -3.8446788e-03  -4.5558163e-02  -8.8683395e-02  -5.8288800e-02  -7.1772526e-02  -1.7695796e-01  -1.3471224e-01  -1.3123371e-01  -1.1677870e-01  -1.3651661e-01  -8.8805486e-02  -1.4863134e-01  -3.7177676e-02  -2.7413869e-02   1.1710034e-01   3.9171818e-01   4.2937099e-01   3.7995623e-01  -8.8135514e-03  -4.3825575e-01  -7.5085898e-01  -1.0469212e+00  -9.7364076e-01  -4.3415687e-01   2.3101445e-01  -5.1970985e-01
   1.0000000e+00  -8.3081234e-01  -3.0505616e+00  -4.0476053e+00  -4.2326604e+00  -3.6696191e+00  -2.8282341e+00  -1.9958907e+00  -1.6922747e+00  -1.2622890e+00  -6.3972882e-01  -5.0583094e-01  -5.0004825e-01  -5.0756872e-01  -5.1852618e-01  -5.0769348e-01  -4.2579634e-01  -4.2958775e-01  -4.9467186e-01  -5.5570326e-01  -5.4819549e-01  -5.7820137e-01  -5.5033570e-01  -5.8073203e-01  -6.2585347e-01  -5.8532849e-01  -5.7736426e-01  -6.5748490e-01  -6.9549282e-01  -7.3701574e-01  -8.3201986e-01  -8.4116333e-01  -9.2653536e-01  -9.1119223e-01  -8.6636737e-01  -8.7610326e-01  -8.1361302e-01  -8.8451312e-01  -7.1168552e-01  -6.9429116e-01  -6.6369268e-01  -5.3269641e-01  -4.9555338e-01  -3.7895411e-01  -3.5423944e-01  -2.4875353e-01  -1.7715503e-01  -1.7074795e-01  -1.0615154e-01  -6.8255843e-03  -1.3238759e-02  -6.8044085e-03   7.0326201e-02   7.6632643e-02   7.9222447e-02   1.5450095e-01   1.1031387e-01   1.4786275e-01   1.5287490e-01   2.3164630e-01   2.4642791e-01   2.1103905e-01   1.9811614e-01   2.6393068e-01   3.2656335e-01   3.8568787e-01   3.5741931e-01   3.9583251e-01   5.0220077e-01   4.9812759e-01   6.0629007e-01   5.5683530e-01   6.4630388e-01   6.5649245e-01   7.2474404e-01   6.6593538e-01   6.5119356e-01   7.0904774e-01   6.7749281e-01   5.8334962e-01   5.7868200e-01   6.5214615e-01   5.1516293e-01   5.6163236e-01   5.3918208e-01   4.2286043e-01   5.4625153e-01   4.9908084e-01   4.3492666e-01   4.5323913e-01   4.1782334e-01   4.8327631e-01   4.1954335e-01   4.9233913e-01   5.2598864e-01   4.4095907e-01   4.7853298e-01   5.3838548e-01   7.5075740e-01   8.7217745e-01   1.0798172e+00   1.2204757e+00   1.2901047e+00   1.5441345e+00   1.7154330e+00   1.8769401e+00   1.7000842e+00   1.6465373e+00   1.4882518e+00   1.2894347e+00   1.1400184e+00   8.6218533e-01   5.9188013e-01   1.7248748e-01  -1.2908090e-01  -1.4310750e-01  -2.5931619e-01  -2.9160486e-01  -2.2538799e-01  -2.1599595e-01  -2.3559382e-01  -2.2370940e-01  -2.5793116e-01  -1.6149154e-01  -2.8271310e-01  -3.1845454e-01  -2.3992660e-01  -2.0618602e-01  -1.6181058e-01  -3.2421739e-02   1.9197353e-01   8.5352978e-01   9.4823686e-01   9.0354015e-01   1.2390001e+00   1.1994468e+00   9.5060251e-01   9.3959592e-01   1.3064315e+00   1.8981593e+00   1.7047779e-01
   1.0000000e+00   8.8416093e-01  -1.9045080e+00  -3.7093850e+00  -4.6219562e+00  -4.7367288e+00  -3.8255993e+00  -2.3117917e+00  -1.6205118e+00  -1.3062441e+00  -9.8542370e-02   1.0636985e-01   1.9837468e-01   1.9865489e-01   1.3761848e-01   2.0095930e-02   3.6199111e-02   1.5154455e-01   4.2447165e-02   2.6993875e-02   6.2738329e-02  -3.0109565e-02  -3.1729104e-02   7.3088375e-04  -1.3689220e-01  -2.8035626e-01  -3.4587504e-01  -3.1883937e-01  -4.6300015e-01  -5.3049020e-01  -6.2918772e-01  -6.3400710e-01  -7.0038000e-01  -7.9359230e-01  -8.5125810e-01  -8.3229728e-01  -9.1665745e-01  -9.2680100e-01  -9.1895496e-01  -8.4360072e-01  -8.1735833e-01  -7.0514798e-01  -8.2043010e-01  -5.3607779e-01  -4.6936500e-01  -2.4316870e-01  -9.4261729e-02  -4.0630260e-02   6.4897301e-02   1.4070183e-01   8.7725181e-02   9.9183480e-02   2.6041782e-01   2.1869644e-01   2.9343191e-01   2.3894728e-01   3.1089879e-01   3.5164681e-01   4.2858430e-01   4.0265281e-01   3.9836750e-01   4.9032617e-01   4.2522077e-01   4.9115569e-01   5.0675809e-01   4.7181139e-01   5.1411297e-01   6.0831431e-01   6.3013834e-01   8.0780105e-01   6.6355579e-01   7.2511025e-01   9.0306107e-01   8.2437506e-01   9.6849691e-01   9.1215970e-01   9.0998124e-01   9.2187043e-01   8.7287831e-01   9.1203725e-01   8.8322154e-01   6.9053295e-01   8.1471247e-01   7.0710302e-01   7.2224021e-01   7.2226475e-01   6.2471818e-01   4.8371863e-01   5.9915686e-01   4.9037199e-01   4.8153663e-01   4.5700768e-01   4.1803729e-01   3.6694212e-01   2.7696812e-01   2.9741855e-01   2.8105991e-01   1.8315134e-01   2.6717769e-01   1.7114741e-01   3.8320806e-01   4.8144159e-01   2.8595044e-01   2.9501784e-01   5.3005970e-01   6.4665966e-01   7.7336382e-01   1.1200971e+00   1.4921609e+00   1.3169518e+00   1.3595556e+00   1.1555640e+00   7.7909476e-01   5.0826241e-01   6.9163764e-01   5.1530920e-01   2.6264411e-02  -3.9166083e-01  -6.0806945e-01  -6.5161966e-01  -2.9788394e-01  -4.6618581e-01  -5.1178022e-01  -6.2699876e-01  -6.1599706e-01  -5.7557994e-01  -5.0926293e-01  -6.4225486e-01  -6.0314325e-01  -4.3182793e-01  -3.4472771e-01   3.0671784e-01   1.5482666e+00   1.6712941e+00   1.2077835e+00   1.2130445e+00   3.7725835e-01  -2.1555874e-01  -9.3964225e-01  -2.0846734e-01  -6.5829992e-01
   1.0000000e+00   1.1048512e+00  -6.1504694e-01  -2.4357678e+00  -3.4192147e+00  -4.3342606e+00  -4.0145647e+00  -2.6293943e+00  -1.7277605e+00  -1.5672598e+00  -5.4344387e-01  -3.2608379e-02   5.2262962e-02   4.7854735e-02   7.8843609e-02   5.6478745e-02   6.5036032e-02  -1.3298503e-01  -1.0655903e-01  -1.6626916e-01  -1.6794430e-01  -1.7780281e-01  -3.3855385e-01  -3.9948177e-01  -4.6678688e-01  -4.0730265e-01  -5.2599942e-01  -4.5350912e-01  -5.9070185e-01  -6.9272233e-01  -7.3933223e-01  -8.1219324e-01  -8.9854487e-01  -9.3068782e-01  -8.5476892e-01  -1.0356973e+00  -9.7818776e-01  -9.9069785e-01  -1.0832035e+00  -1.0286351e+00  -1.0438466e+00  -9.8387526e-01  -9.2663997e-01  -8.4601736e-01  -6.5032235e-01  -6.5880903e-01  -5.7758224e-01  -4.2640398e-01  -2.4153857e-01  -2.9990283e-01  -2.3285641e-01  -1.6665437e-01  -1.6778005e-01  -2.2606564e-01  -3.3829763e-02  -9.1845811e-02  -1.0783691e-01   1.2430121e-02   8.7887511e-03   1.3536591e-01   1.1715629e-01  -1.9618980e-03   1.5090682e-01   9.0115532e-02   1.8195675e-01   1.1740211e-01   3.0042440e-01   3.9188205e-01   4.0191470e-01   4.3046239e-01   4.0666469e-01   5.4321000e-01   5.5989075e-01   5.2972610e-01   5.3984827e-01   6.8314472e-01   5.8552530e-01   7.3705409e-01   5.2879474e-01   3.8952540e-01   4.0099651e-01   4.1857478e-01   4.5111686e-01   4.5068481e-01   5.5263517e-01   4.8097082e-01   4.4995928e-01   4.4558714e-01   2.9426047e-01   2.3374698e-01   2.6881482e-01   2.3809717e-01   3.1589206e-01   3.8985966e-01   4.2461387e-01   2.6276995e-01   1.7524475e-01   2.6951942e-01   3.0616273e-01   1.8566825e-01   1.8484815e-01   2.5212365e-01   3.7290132e-01   7.1421291e-01   1.0620325e+00   1.1900750e+00   1.4349882e+00   1.5473163e+00   1.9544261e+00   2.2300509e+00   2.3999510e+00   2.1807448e+00   1.8623289e+00   1.6972293e+00   1.2327377e+00   1.0420004e+00   7.2458718e-01   6.6087348e-02  -1.7406161e-01  -1.5736415e-01  -2.5722836e-01  -3.2260303e-01  -3.5008558e-01  -2.6817206e-01  -2.3951853e-01  -2.9855187e-01  -2.9278945e-01  -1.7049979e-01  -1.8110079e-01  -3.1513096e-01  -3.3250240e-01  -8.9673179e-02   3.7870171e-01   1.4543190e+00   1.5331198e+00   1.3983858e+00   1.7068272e+00   1.3385315e+00   7.3391100e-01  -3.0058531e-01  -2.2360552e-01
   1.0000000e+00  -6.9539923e-01  -2.0008649e+00  -2.6317933e+00  -3.3096623e+00  -3.6957857e+00  -3.5143872e+00  -3.0958049e+00  -1.9830469e+00  -1.1244418e+00  -8.4165015e-01  -3.6466335e-01  -1.4020092e-03  -1.9985354e-02   2.3048798e-02   1.0571143e-01  -3.8620262e-02   1.2884010e-01   1.6927038e-01   1.6215689e-01   5.9635241e-02   2.1488956e-01   1.2881461e-01   3.7699842e-02   9.4185880e-02   1.5749332e-01   8.2526701e-02   2.1673644e-02   3.0732027e-02   7.2754053e-02   7.3090283e-02   6.2655868e-02   3.8713679e-02   2.7750787e-03  -7.0151191e-03   1.0210396e-01   1.1865287e-01  -7.0956822e-04  -5.7169993e-02   1.0924887e-01   1.0704586e-01   1.1118801e-01   2.3236416e-01   1.7411022e-01   3.0340929e-01   3.6116636e-01   2.0342115e-01   3.1430842e-01   3.2745863e-01   3.9559731e-01   4.0742592e-01   3.8840212e-01   3.4951355e-01   3.7679381e-01   4.2590929e-01   4.0041042e-01   4.1863674e-01   4.0324547e-01   4.1548239e-01   3.0339543e-01   3.1711989e-01   3.1129290e-01   3.4569511e-01   2.5711654e-01   1.8670332e-01   3.4942692e-01   3.9840382e-01   3.8565369e-01   3.6402212e-01   3.9734204e-01   4.3708645e-01   3.3935840e-01   4.1206427e-01   4.4889188e-01   5.9112201e-01   5.6744708e-01   2.7606811e-01   3.6236832e-01   5.2457008e-01   4.8341201e-01   6.3083851e-01   6.0320060e-01   5.7145463e-01   4.5679147e-01   3.9528220e-01   4.8637297e-01   5.2845272e-01   4.2459750e-01   4.7091970e-01   5.1050283e-01   4.7902110e-01   4.2743072e-01   4.5596264e-01   6.0572690e-01   8.7832353e-01   9.3857448e-01   1.0237718e+00   1.3713441e+00   1.5534944e+00   1.8455145e+00   1.9647878e+00   1.9737840e+00   1.8853201e+00   1.6019487e+00   1.5557129e+00   1.2676938e+00   8.8135873e-01   6.6731569e-01   2.6075130e-01  -2.4962158e-01  -3.1971025e-01  -4.3501598e-01  -4.1281525e-01  -4.2066465e-01  -5.8916408e-01  -5.1245156e-01  -5.4860570e-01  -7.2887865e-01  -5.4410111e-01  -5.9075118e-01  -5.5776601e-01  -5.3202126e-01  -5.4489517e-01  -5.3799723e-01  -4.6689758e-01  -5.3587557e-01  -4.3096084e-01  -1.9411509e-01   3.3747064e-01   1.0609590e+00   1.1575028e+00   8.5910205e-01   2.2876558e-01  -7.3635467e-01  -1.5407437e+00  -1.8400319e+00  -1.9371404e+00  -1.3060067e+00  -1.4371505e+00  -2.0222007e+00  -3.1768335e+00
   1.0000000e+00  -1.2277594e+00  -3.2861576e+00  -4.0213751e+00  -4.6810000e+00  -4.0543767e+00  -2.8484134e+00  -1.9718769e+00  -1.5533419e+00  -7.3976967e-01  -2.4952792e-01  -2.4106219e-01  -2.2594126e-01  -2.4211156e-01  -1.3453778e-01  -1.3554858e-01  -2.2445644e-01  -2.6305653e-01  -2.0349192e-01  -2.1084231e-01  -2.4089787e-01  -3.7940199e-01  -3.4088977e-01  -3.4684971e-01  -3.7825214e-01  -3.5476916e-01  -4.5518246e-01  -4.1265306e-01  -6.1587201e-01  -5.9326038e-01  -7.1257731e-01  -7.7619202e-01  -8.4025617e-01  -8.5840730e-01  -7.1511994e-01  -8.6533701e-01  -7.7926799e-01  -8.2465446e-01  -8.7324388e-01  -8.3367105e-01  -7.5357017e-01  -6.6427349e-01  -5.7703937e-01  -3.2828062e-01  -2.1946834e-01  -1.3182700e-01  -5.5075393e-02   2.3814419e-02   4.7382580e-02   4.8000274e-02   1.6110342e-01   1.7152045e-01   1.6480965e-01   1.1281047e-01   2.1640349e-01   1.5398013e-01   2.1603558e-01   2.5529161e-01   2.0001702e-01   2.3901640e-01   2.0589034e-01   2.8661855e-01   2.9561763e-01   2.7886488e-01   3.0594777e-01   3.2401453e-01   2.6738940e-01   3.4360864e-01   4.1807589e-01   4.2625885e-01   4.5587042e-01   5.1197813e-01   4.5390340e-01   5.6572072e-01   6.3694300e-01   7.1217775e-01   7.0797953e-01   6.0997214e-01   6.0351655e-01   6.3146153e-01   5.9933243e-01   5.7428146e-01   5.9072415e-01   4.9526459e-01   4.9051705e-01   5.4519240e-01   4.5760556e-01   4.9144645e-01   4.0721860e-01   4.4243302e-01   3.9855099e-01   3.6649088e-01   3.9849693e-01   3.4145259e-01   3.6548077e-01   3.5561001e-01   3.8302319e-01   4.0455277e-01   5.4407555e-01   7.4816301e-01   9.3648489e-01   1.0684685e+00   1.2227832e+00   1.3365782e+00   1.6316859e+00   1.8887178e+00   1.8590194e+00   1.8919179e+00   1.6934637e+00   1.5817616e+00   1.2635078e+00   9.7943831e-01   7.4996163e-01   2.6019581e-01  -5.1818380e-02  -1.0673436e-01  -2.1286752e-01  -1.8100471e-01  -2.3691684e-01  -2.4097642e-01  -2.0919780e-01  -1.7692191e-01  -1.6545856e-01  -1.6163486e-01  -2.1371257e-01  -2.0063199e-01  -2.1946088e-01  -2.1164628e-01  -1.2618302e-01   8.6891427e-04   3.8263479e-01   1.0619239e+00   1.1019643e+00   1.1121230e+00   1.1300149e+00   7.9151423e-01   2.6194714e-01   2.1634899e-01   5.3638027e-01   5.5284528e-01  -1.8083547e+00
   1.0000000e+00  -1.3353913e+00  -3.4690114e+00  -3.8148856e+00  -4.3905039e+00  -4.0062885e+00  -3.2848970e+00  -2.1571032e+00  -1.3821288e+00  -1.0301500e+00  -5.7765739e-01  -1.5224682e-01  -3.4734899e-01  -3.0394852e-01  -2.7271367e-01  -2.0382200e-01  -1.3090709e-01  -8.6812343e-02  -1.5665255e-01  -1.3258896e-01  -1.0372430e-01   1.0060985e-01   2.1012806e-01   1.0828974e-01  -2.8555807e-02  -1.4063993e-01  -5.1812000e-02  -1.0726264e-01  -1.6426570e-01  -1.3531107e-01  -9.0365558e-03   7.4634396e-02   1.7290288e-01   4.5899131e-01   4.5768877e-01   5.7334326e-02  -2.4982739e-01  -1.4258171e-01   2.5803288e-01   2.7963887e-01   7.3787862e-02   1.8502643e-01   1.3427193e-01   2.0416620e-01   3.9188259e-01   3.0839743e-01   3.1691497e-01   3.7525025e-01   3.1924646e-01   1.2954302e-01   5.0297033e-02   1.7674269e-01   2.1832419e-01   2.0085554e-01   1.0617549e-01   8.6559861e-02   3.0675708e-01   2.5918214e-01   4.3706013e-02  -6.0893229e-02  -1.8929039e-01  -2.3510996e-01  -1.0876535e-01   9.1863981e-03   6.7955482e-03   1.0985631e-01   9.6632524e-02   2.2157991e-02   6.5852455e-03   3.1846974e-02   2.2644666e-01   3.1114423e-01   2.8821453e-01   2.2024298e-01   2.6442975e-01   3.8136609e-01   4.6466154e-01   6.0660841e-01   6.5025523e-01   5.0635666e-01   3.9941547e-01   3.3802357e-01   2.9915944e-01   3.4226667e-01   3.6727393e-01   2.6878788e-01   2.5760839e-01   3.4000499e-01   3.4597930e-01   3.4131010e-01   4.6761456e-01   3.5803673e-01   3.6017520e-01   4.8669179e-01   3.9136373e-01   5.4366579e-01   8.0155170e-01   9.7278985e-01   9.4703790e-01   1.1331361e+00   1.3726526e+00   1.7330941e+00   2.0773572e+00   1.9415401e+00   2.0670867e+00   1.9659311e+00   1.7493057e+00   1.5260853e+00   1.1551629e+00   1.0690593e+00   7.2183501e-01   5.4853089e-01   1.0818012e-01  -1.4292171e-01  -2.6450656e-01  -3.7677251e-01  -3.5424141e-01  -2.0604847e-01  -2.8397892e-01  -4.1070243e-01  -4.1723531e-01  -4.9329191e-01  -2.9261544e-01  -3.9461907e-01  -3.4178127e-01  -2.3210900e-01  -3.5916016e-01  -2.7809835e-01   8.3357264e-02   4.8794694e-01   1.0580669e+00   1.0964763e+00   7.2558295e-01   3.4455783e-01  -7.0564555e-01  -1.3966628e+00  -1.5982536e+00  -1.1323195e+00  -5.2638498e-01  -4.9185942e-01  -2.2004852e+00
   1.0000000e+00  -5.7057541e-01  -3.0182942e+00  -4.2551539e+00  -4.1705650e+00  -3.8254951e+00  -2.9552200e+00  -1.7560359e+00  -1.5059988e+00  -1.1146806e+00  -4.1407790e-01  -2.0999417e-01  -2.5282048e-01  -1.7914872e-01  -2.5539908e-01  -2.2658879e-01  -2.3999936e-01  -2.5178232e-01  -3.1043199e-01  -2.9035240e-01  -2.8516817e-01  -3.1871756e-01  -3.3207054e-01  -4.3625125e-01  -3.7975806e-01  -4.1561133e-01  -5.1026114e-01  -5.4042029e-01  -6.1986552e-01  -6.9587977e-01  -6.7650297e-01  -7.0446012e-01  -7.2568480e-01  -8.1261656e-01  -8.6218521e-01  -7.5484832e-01  -8.9279999e-01  -9.0710615e-01  -7.8343331e-01  -8.3131897e-01  -7.5454105e-01  -6.9783003e-01  -6.8814467e-01  -6.2024079e-01  -5.8111261e-01  -3.9025569e-01  -3.9671042e-01  -2.9867569e-01  -4.8376735e-02  -1.5940151e-01  -1.2299041e-02   2.7221760e-02  -2.1089424e-02   2.3121208e-02   7.5499351e-02   1.1885225e-01   6.7284797e-02   1.2700796e-01   2.0118456e-01   2.0573953e-01   2.0752071e-01   2.6309847e-01   2.3497068e-01   2.6322962e-01   2.7238710e-01   3.8315375e-01   3.8223104e-01   2.6814225e-01   4.3351153e-01   4.2796689e-01   5.0722049e-01   5.4612859e-01   5.1957909e-01   6.3420662e-01   5.2192862e-01   6.1671368e-01   6.1024196e-01   4.9113903e-01   5.7575917e-01   6.2301987e-01   5.7171471e-01   6.2310348e-01   4.9406835e-01   5.3078937e-01   5.8982918e-01   5.2312625e-01   4.9268630e-01   4.7606131e-01   5.1815695e-01   4.3330936e-01   4.6640670e-01   4.7485783e-01   4.5152257e-01   4.3376607e-01   4.3435107e-01   5.4031828e-01   7.2257108e-01   8.2642661e-01   1.0485538e+00   1.1122542e+00   1.3402777e+00   1.5609974e+00   1.7005510e+00   1.9240834e+00   1.8351270e+00   1.8735575e+00   1.7434677e+00   1.5311838e+00   1.4211214e+00   1.1582272e+00   8.4444575e-01   4.5639106e-01   9.4326873e-02  -1.1086729e-01  -2.9659388e-01  -3.7012404e-01  -3.8410214e-01  -4.2196859e-01  -3.7908979e-01  -3.3193441e-01  -3.7992519e-01  -3.3559634e-01  -3.6886029e-01  -3.5406547e-01  -3.3758831e-01  -3.9524759e-01  -4.3247783e-01  -3.4153063e-01  -3.4443940e-01  -1.5449115e-01   2.4259011e-01   8.0757266e-01   7.5169411e-01   8.1610627e-01   9.1104374e-01   9.5894504e-01   7.6474480e-01   8.7664661e-01   1.2841508e+00   1.9247869e+00   4.8118142e-01
